# dimensionless total [l(l+1)/2pi] C_l's
# for l=2 to 3000, i.e. number of multipoles equal to 2999
#
# -> if you prefer output in CAMB/HealPix/LensPix units/order, set 'format' to 'camb' in input file
# -> if you don't want to see such a header, set 'headers' to 'no' in input file
# -> for CMB lensing (phi), these are C_l^phi-phi for the lensing potential.
#    Remember the conversion factors:
#    C_l^dd (deflection) = l(l+1) C_l^phi-phi
#    C_l^gg (shear/convergence) = 1/4 (l(l+1))^2 C_l^phi-phi
#
# 1:l     2:TT                     3:EE                     4:TE                     5:BB                     6:phiphi                 7:TPhi                   8:Ephi               
    2       1.424630174466e-10       4.161913190072e-15       3.803346098028e-13       0.000000000000e+00       8.231935422267e-09       4.309788290586e-10      -1.840053972248e-12 
    3       1.348764936164e-10       5.343631470877e-15       4.246654877695e-13       0.000000000000e+00       5.063580703485e-09       3.066573401827e-10      -1.394976238393e-12 
    4       1.274999503959e-10       4.631864551127e-15       3.953329103924e-13       0.000000000000e+00       3.518492974936e-09       2.324958956622e-10      -9.149469825443e-13 
    5       1.218516206381e-10       3.096646913900e-15       3.348472756691e-13       0.000000000000e+00       2.625484996324e-09       1.836880173611e-10      -5.103482978327e-13 
    6       1.178709975587e-10       1.733909227878e-15       2.676511900644e-13       0.000000000000e+00       2.050550180156e-09       1.494198287076e-10      -2.117469174754e-13 
    7       1.151767386380e-10       9.357151876102e-16       2.079856745864e-13       0.000000000000e+00       1.654248173044e-09       1.242526074982e-10      -2.078828582451e-14 
    8       1.134890305891e-10       6.012122584091e-16       1.621386170537e-13       0.000000000000e+00       1.367262130362e-09       1.051642647993e-10       7.718070043667e-14 
    9       1.125575024683e-10       4.813669389622e-16       1.314813373559e-13       0.000000000000e+00       1.151350355655e-09       9.035125016361e-11       1.052009742821e-13 
   10       1.121550668687e-10       4.102894274349e-16       1.145614165916e-13       0.000000000000e+00       9.839978077285e-10       7.861628732454e-11       8.889174707152e-14 
   11       1.122173087544e-10       3.449412488884e-16       1.084521891850e-13       0.000000000000e+00       8.289420164117e-10       6.945046771462e-11       5.221275557636e-14 
   12       1.125952935551e-10       3.003359066386e-16       1.097862053493e-13       0.000000000000e+00       7.242001487633e-10       6.137140114064e-11       1.272144492685e-14 
   13       1.132361158125e-10       2.877133916823e-16       1.155667933715e-13       0.000000000000e+00       6.382255161749e-10       5.482686993523e-11      -1.755380861037e-14 
   14       1.140868895681e-10       2.994665547595e-16       1.235429663487e-13       0.000000000000e+00       5.667029098560e-10       4.911057419538e-11      -3.426803162925e-14 
   15       1.151363183689e-10       3.238429039505e-16       1.323114249929e-13       0.000000000000e+00       5.065057641259e-10       4.431520739462e-11      -3.748924703394e-14 
   16       1.163115546008e-10       3.581351568752e-16       1.411132690076e-13       0.000000000000e+00       4.553296617985e-10       4.018858137208e-11      -3.107593505257e-14 
   17       1.176327571153e-10       4.078420292887e-16       1.497353148790e-13       0.000000000000e+00       4.114339731716e-10       3.659044976964e-11      -2.016494475857e-14 
   18       1.190382875295e-10       4.784528750749e-16       1.584726231897e-13       0.000000000000e+00       3.733387699216e-10       3.344949712466e-11      -9.648165664439e-15 
   19       1.205390865828e-10       5.703455467398e-16       1.675603889649e-13       0.000000000000e+00       3.404392184015e-10       3.072266222412e-11      -2.161727377030e-15 
   20       1.221241243591e-10       6.815675381560e-16       1.771565040590e-13       0.000000000000e+00       3.114656718822e-10       2.830580411988e-11       5.354879917560e-16 
   21       1.237961247897e-10       8.114900341027e-16       1.872592209695e-13       0.000000000000e+00       2.859624536679e-10       2.615435966470e-11      -1.031064414373e-15 
   22       1.255305361135e-10       9.596285398364e-16       1.977313505924e-13       0.000000000000e+00       2.633190981853e-10       2.421121515938e-11      -5.153176613652e-15 
   23       1.273303405853e-10       1.126213506496e-15       2.082225979498e-13       0.000000000000e+00       2.432239733637e-10       2.246641497531e-11      -1.009729214501e-14 
   24       1.291859657323e-10       1.311502575484e-15       2.182732069722e-13       0.000000000000e+00       2.252121586144e-10       2.090355731740e-11      -1.400094337792e-14 
   25       1.311010021898e-10       1.515529672409e-15       2.275973369686e-13       0.000000000000e+00       2.090715143653e-10       1.950631245261e-11      -1.601129207259e-14 
   26       1.330664187327e-10       1.738492065747e-15       2.359634879299e-13       0.000000000000e+00       1.945096110805e-10       1.824392080032e-11      -1.576360587921e-14 
   27       1.350750700686e-10       1.982385373871e-15       2.432496998766e-13       0.000000000000e+00       1.813515259922e-10       1.709707173306e-11      -1.385498628965e-14 
   28       1.371117218339e-10       2.249755804912e-15       2.493993977655e-13       0.000000000000e+00       1.693701695002e-10       1.604314633321e-11      -1.127609468993e-14 
   29       1.391856118065e-10       2.542089403164e-15       2.544783279947e-13       0.000000000000e+00       1.585042437753e-10       1.508055509778e-11      -8.685177031693e-15 
   30       1.413023111309e-10       2.860539785991e-15       2.586301909658e-13       0.000000000000e+00       1.486369680698e-10       1.420602586113e-11      -6.755859663293e-15 
   31       1.434566629245e-10       3.206199194098e-15       2.620037716675e-13       0.000000000000e+00       1.395669296519e-10       1.340797515827e-11      -6.113512549195e-15 
   32       1.456514316786e-10       3.579994419926e-15       2.645561810888e-13       0.000000000000e+00       1.312471994807e-10       1.267783158488e-11      -6.589816124500e-15 
   33       1.478829061768e-10       3.982738610628e-15       2.661751418829e-13       0.000000000000e+00       1.236188477198e-10       1.200127442402e-11      -7.676271666985e-15 
   34       1.501404171759e-10       4.415191464803e-15       2.667306130267e-13       0.000000000000e+00       1.165750054165e-10       1.136090891591e-11      -8.802393391936e-15 
   35       1.524265534399e-10       4.878204689599e-15       2.660839057257e-13       0.000000000000e+00       1.100795574714e-10       1.075888286883e-11      -9.677053133834e-15 
   36       1.547422695545e-10       5.372618380007e-15       2.640790457435e-13       0.000000000000e+00       1.040803332184e-10       1.020147449260e-11      -1.005772321929e-14 
   37       1.570840566130e-10       5.899226408988e-15       2.605729167435e-13       0.000000000000e+00       9.849918460054e-11       9.692126641402e-12      -9.746400490219e-15 
   38       1.594555190582e-10       6.458803717516e-15       2.555521829817e-13       0.000000000000e+00       9.332166210426e-11       9.228847933449e-12      -8.893529737900e-15 
   39       1.618584541040e-10       7.052081594189e-15       2.490556150165e-13       0.000000000000e+00       8.853131577799e-11       8.805455162318e-12      -7.798163969272e-15 
   40       1.642889999101e-10       7.679735816364e-15       2.411445368025e-13       0.000000000000e+00       8.408241851070e-11       8.411865805229e-12      -6.832698961506e-15 
   41       1.667407665282e-10       8.342403586050e-15       2.318787331495e-13       0.000000000000e+00       7.991589030743e-11       8.037143282951e-12      -6.345304776481e-15 
   42       1.692168687991e-10       9.040749529459e-15       2.212314661755e-13       0.000000000000e+00       7.601944440133e-11       7.680581574655e-12      -6.317628541355e-15 
   43       1.717208203594e-10       9.775415188242e-15       2.091490857101e-13       0.000000000000e+00       7.238272261983e-11       7.343699294572e-12      -6.603638785296e-15 
   44       1.742528259168e-10       1.054699826363e-14       1.955737145397e-13       0.000000000000e+00       6.897924749128e-11       7.027108945979e-12      -7.020062847198e-15 
   45       1.768111961987e-10       1.135604582766e-14       1.804485360910e-13       0.000000000000e+00       6.577587530096e-11       6.730630087642e-12      -7.387362943079e-15 
   46       1.793978821966e-10       1.220303663183e-14       1.637364632311e-13       0.000000000000e+00       6.276754895970e-11       6.453866371798e-12      -7.672691277312e-15 
   47       1.820140288219e-10       1.308838983147e-14       1.454063861257e-13       0.000000000000e+00       5.995075226986e-11       6.195658673509e-12      -7.885761391773e-15 
   48       1.846581440945e-10       1.401246678760e-14       1.254279163929e-13       0.000000000000e+00       5.731302822324e-11       5.953832753716e-12      -8.039470770067e-15 
   49       1.873258667127e-10       1.497556863824e-14       1.037713234376e-13       0.000000000000e+00       5.483231420746e-11       5.725126915110e-12      -8.150093653180e-15 
   50       1.900122625762e-10       1.597793291698e-14       8.040719026140e-14       0.000000000000e+00       5.248358373708e-11       5.506124563688e-12      -8.236429220153e-15 
   51       1.927199884851e-10       1.701972796087e-14       5.530541845464e-14       0.000000000000e+00       5.026243932224e-11       5.296518151511e-12      -8.316526215602e-15 
   52       1.954529426141e-10       1.810105278657e-14       2.843584307092e-14       0.000000000000e+00       4.816677448097e-11       5.096606143047e-12      -8.410402553042e-15 
   53       1.982138185034e-10       1.922193549573e-14      -2.315854968831e-16       0.000000000000e+00       4.618971358745e-11       4.906341083005e-12      -8.541152493396e-15 
   54       2.010039916379e-10       2.038233080154e-14      -3.072687838329e-14       0.000000000000e+00       4.431929091484e-11       4.725304541882e-12      -8.735090301347e-15 
   55       2.038240075765e-10       2.158215608667e-14      -6.307544438193e-14       0.000000000000e+00       4.254209918124e-11       4.552920466495e-12      -9.012969700942e-15 
   56       2.066754481796e-10       2.282141573314e-14      -9.728289457512e-14       0.000000000000e+00       4.085603186638e-11       4.389214694662e-12      -9.360758798514e-15 
   57       2.095593303270e-10       2.410010334619e-14      -1.333465974861e-13       0.000000000000e+00       3.926014417832e-11       4.234200235431e-12      -9.751856648605e-15 
   58       2.124754569606e-10       2.541816497784e-14      -1.712598874053e-13       0.000000000000e+00       3.775079820739e-11       4.087639972278e-12      -1.015518176698e-14 
   59       2.154223271008e-10       2.677549815462e-14      -2.110119604493e-13       0.000000000000e+00       3.632149662504e-11       3.949030897156e-12      -1.053496809086e-14 
   60       2.183970458620e-10       2.817195090537e-14      -2.525877706194e-13       0.000000000000e+00       3.496271638262e-11       3.817588344553e-12      -1.085056093913e-14 
   61       2.213966201865e-10       2.960725557478e-14      -2.959705133233e-13       0.000000000000e+00       3.366455191864e-11       3.692464156968e-12      -1.106577841544e-14 
   62       2.244223894787e-10       3.108081510318e-14      -3.411499624987e-13       0.000000000000e+00       3.242571430311e-11       3.573494072290e-12      -1.117991266546e-14 
   63       2.274764343220e-10       3.259186683139e-14      -3.881158289179e-13       0.000000000000e+00       3.124626613609e-11       3.460590882059e-12      -1.120335678070e-14 
   64       2.305602334138e-10       3.413954050057e-14      -4.368553164466e-13       0.000000000000e+00       3.012491465449e-11       3.353517125203e-12      -1.114875088704e-14 
   65       2.336746175492e-10       3.572285521076e-14      -4.873531002015e-13       0.000000000000e+00       2.905893457449e-11       3.251876744569e-12      -1.103108160925e-14 
   66       2.368197236052e-10       3.734071637950e-14      -5.395913047071e-13       0.000000000000e+00       2.804409093386e-11       3.155106743438e-12      -1.086778153548e-14 
   67       2.399949485241e-10       3.899191270029e-14      -5.935494820528e-13       0.000000000000e+00       2.707456193439e-11       3.062468842047e-12      -1.067882868177e-14 
   68       2.431995424638e-10       4.067523302565e-14      -6.492056844769e-13       0.000000000000e+00       2.614449307139e-11       2.973239118518e-12      -1.048295072694e-14 
   69       2.464346306717e-10       4.238985131645e-14      -7.065399833165e-13       0.000000000000e+00       2.525319766972e-11       2.887340203146e-12      -1.028512226380e-14 
   70       2.497015205122e-10       4.413501458802e-14      -7.655316271260e-13       0.000000000000e+00       2.440087634567e-11       2.804822783298e-12      -1.008670120426e-14 
   71       2.530010694127e-10       4.590992991242e-14      -8.261580163760e-13       0.000000000000e+00       2.358704415511e-11       2.725675732038e-12      -9.889099701159e-15 
   72       2.563336551940e-10       4.771376444417e-14      -8.883947096015e-13       0.000000000000e+00       2.281049515676e-11       2.649822828190e-12      -9.693783990466e-15 
   73       2.596991464012e-10       4.954564544586e-14      -9.522154295488e-13       0.000000000000e+00       2.206926697548e-11       2.577119476396e-12      -9.502274233576e-15 
   74       2.630968726344e-10       5.140466031387e-14      -1.017592069323e-12       0.000000000000e+00       2.136060536556e-11       2.507349427184e-12      -9.316144359550e-15 
   75       2.665255948797e-10       5.328985660404e-14      -1.084494698537e-12       0.000000000000e+00       2.068092877396e-11       2.440221497023e-12      -9.137021907368e-15 
   76       2.699840985810e-10       5.520018703104e-14      -1.152891100464e-12       0.000000000000e+00       2.002671699977e-11       2.375446400065e-12      -8.966461305945e-15 
   77       2.734731632970e-10       5.713433283065e-14      -1.222745272485e-12       0.000000000000e+00       1.939744259236e-11       2.312990668843e-12      -8.805537384967e-15 
   78       2.769938999865e-10       5.909084808369e-14      -1.294018662088e-12       0.000000000000e+00       1.879311211000e-11       2.252863293381e-12      -8.655177107822e-15 
   79       2.805471435054e-10       6.106821080005e-14      -1.366670608188e-12       0.000000000000e+00       1.821337322550e-11       2.195038106594e-12      -8.516276849418e-15 
   80       2.841334357071e-10       6.306482181590e-14      -1.440658337661e-12       0.000000000000e+00       1.765749823882e-11       2.139452147112e-12      -8.389699643186e-15 
   81       2.877530085431e-10       6.507900369109e-14      -1.515936961872e-12       0.000000000000e+00       1.712436758972e-11       2.086004022091e-12      -8.276272428068e-15 
   82       2.914057671638e-10       6.710899960641e-14      -1.592459473203e-12       0.000000000000e+00       1.661245337033e-11       2.034552270031e-12      -8.176783295510e-15 
   83       2.950912730191e-10       6.915297226096e-14      -1.670176741590e-12       0.000000000000e+00       1.611980283782e-11       1.984913723596e-12      -8.091978736460e-15 
   84       2.988090241532e-10       7.120907022984e-14      -1.749038129149e-12       0.000000000000e+00       1.564451275773e-11       1.936909348447e-12      -8.022173200228e-15 
   85       3.025593864971e-10       7.327564209224e-14      -1.828993458758e-12       0.000000000000e+00       1.518627890052e-11       1.890514077180e-12      -7.966009431748e-15 
   86       3.063427866984e-10       7.535105594463e-14      -1.909991366984e-12       0.000000000000e+00       1.474507438424e-11       1.845728928476e-12      -7.921486621475e-15 
   87       3.101594169247e-10       7.743363512713e-14      -1.991978721809e-12       0.000000000000e+00       1.432067356613e-11       1.802534912684e-12      -7.886320689192e-15 
   88       3.140092229592e-10       7.952165825463e-14      -2.074900629553e-12       0.000000000000e+00       1.391264380446e-11       1.760892192550e-12      -7.857935015235e-15 
   89       3.178918922961e-10       8.161335924790e-14      -2.158700441791e-12       0.000000000000e+00       1.352033722044e-11       1.720739243950e-12      -7.833451171718e-15 
   90       3.218068422361e-10       8.370692736470e-14      -2.243319762274e-12       0.000000000000e+00       1.314288246005e-11       1.681992016626e-12      -7.809679653759e-15 
   91       3.257532079818e-10       8.580050723087e-14      -2.328698453842e-12       0.000000000000e+00       1.277917645593e-11       1.644543094915e-12      -7.783110610711e-15 
   92       3.297298307333e-10       8.789219887147e-14      -2.414774645349e-12       0.000000000000e+00       1.242787618931e-11       1.608260858485e-12      -7.749904577383e-15 
   93       3.337356052122e-10       8.998008659451e-14      -2.501485554429e-12       0.000000000000e+00       1.208771719821e-11       1.573021744487e-12      -7.706774490325e-15 
   94       3.377706078797e-10       9.206233054395e-14      -2.588770082315e-12       0.000000000000e+00       1.175854179317e-11       1.538814407422e-12      -7.653803613592e-15 
   95       3.418351171818e-10       9.413708903789e-14      -2.676566623891e-12       0.000000000000e+00       1.144041097336e-11       1.505649746095e-12      -7.592036264217e-15 
   96       3.459292623629e-10       9.620249136422e-14      -2.764812304491e-12       0.000000000000e+00       1.113328775661e-11       1.473528818309e-12      -7.522627216029e-15 
   97       3.500530164947e-10       9.825663820779e-14      -2.853442998011e-12       0.000000000000e+00       1.083703342642e-11       1.442442455969e-12      -7.446844665394e-15 
   98       3.542061895056e-10       1.002976020776e-13      -2.942393345033e-12       0.000000000000e+00       1.055140377909e-11       1.412370880199e-12      -7.366073196972e-15 
   99       3.583884212104e-10       1.023234277339e-13      -3.031596770942e-12       0.000000000000e+00       1.027604537075e-11       1.383283316446e-12      -7.281816749465e-15 
  100       3.625991743389e-10       1.043321326154e-13      -3.120985504041e-12       0.000000000000e+00       1.001049176445e-11       1.355137609597e-12      -7.195701581366e-15 
  101       3.668377275659e-10       1.063217072665e-13      -3.210490593670e-12       0.000000000000e+00       9.754159777212e-12       1.327879839083e-12      -7.109479236711e-15 
  102       3.711031685398e-10       1.082901157642e-13      -3.300041928325e-12       0.000000000000e+00       9.506345727115e-12       1.301443933997e-12      -7.025029510828e-15 
  103       3.753943869125e-10       1.102352961458e-13      -3.389568253774e-12       0.000000000000e+00       9.266221680357e-12       1.275751288199e-12      -6.944363416088e-15 
  104       3.797103048058e-10       1.121552118277e-13      -3.478997751619e-12       0.000000000000e+00       9.033023064059e-12       1.250729268251e-12      -6.869190777584e-15 
  105       3.840506186819e-10       1.140480128561e-13      -3.568259824957e-12       0.000000000000e+00       8.806648451422e-12       1.226370413594e-12      -6.799550108660e-15 
  106       3.884151451600e-10       1.159118973368e-13      -3.657283588832e-12       0.000000000000e+00       8.587134179447e-12       1.202680553133e-12      -6.734998318922e-15 
  107       3.928035882191e-10       1.177450633638e-13      -3.745997355324e-12       0.000000000000e+00       8.374468588268e-12       1.179660451413e-12      -6.675027759988e-15 
