# dimensionless total [l(l+1)/2pi] C_l's
# for l=2 to 3000, i.e. number of multipoles equal to 2999
#
# -> if you prefer output in CAMB/HealPix/LensPix units/order, set 'format' to 'camb' in input file
# -> if you don't want to see such a header, set 'headers' to 'no' in input file
# -> for CMB lensing (phi), these are C_l^phi-phi for the lensing potential.
#    Remember the conversion factors:
#    C_l^dd (deflection) = l(l+1) C_l^phi-phi
#    C_l^gg (shear/convergence) = 1/4 (l(l+1))^2 C_l^phi-phi
#
# 1:l     2:TT                     3:EE                     4:TE                     5:BB                     6:phiphi                 7:TPhi                   8:Ephi               
    2       1.423015451392e-10       4.161465289531e-15       3.794370966107e-13       0.000000000000e+00       8.228376649041e-09       4.314350298635e-10      -1.840046881616e-12 
    3       1.347277287165e-10       5.343087994935e-15       4.237520117451e-13       0.000000000000e+00       5.062560515604e-09       3.069374523933e-10      -1.394936399864e-12 
    4       1.273677666930e-10       4.631341206268e-15       3.945403377578e-13       0.000000000000e+00       3.517602836052e-09       2.326856005892e-10      -9.149101774422e-13 
    5       1.217351500570e-10       3.096250759551e-15       3.342358478399e-13       0.000000000000e+00       2.624627162075e-09       1.838268296250e-10      -5.103197009756e-13 
    6       1.177684887278e-10       1.733658892282e-15       2.672274349662e-13       0.000000000000e+00       2.049775511142e-09       1.495259460302e-10      -2.117252481664e-13 
    7       1.150868084597e-10       9.355702806811e-16       2.077221426796e-13       0.000000000000e+00       1.653541520920e-09       1.243372186500e-10      -2.077161991397e-14 
    8       1.134102864126e-10       6.011271699775e-16       1.619924129633e-13       0.000000000000e+00       1.366636259431e-09       1.052357750414e-10       7.719376805154e-14 
    9       1.124886265145e-10       4.813073923433e-16       1.314075365487e-13       0.000000000000e+00       1.150809763323e-09       9.041309646541e-11       1.052115139448e-13 
   10       1.120953107824e-10       4.102337347591e-16       1.145212328776e-13       0.000000000000e+00       9.835347400524e-10       7.866865417654e-11       8.890025585444e-14 
   11       1.121656017345e-10       3.448764746536e-16       1.084167706354e-13       0.000000000000e+00       8.285438509665e-10       6.949511733239e-11       5.221887114286e-14 
   12       1.125512438210e-10       3.002549146344e-16       1.097382611408e-13       0.000000000000e+00       7.238372459014e-10       6.141129383117e-11       1.272599433699e-14 
   13       1.131992436116e-10       2.876112369998e-16       1.154979574670e-13       0.000000000000e+00       6.378930314559e-10       5.486265552061e-11      -1.755091683787e-14 
   14       1.140562755590e-10       2.993373314129e-16       1.234514912718e-13       0.000000000000e+00       5.663968903527e-10       4.914189104027e-11      -3.426733118367e-14 
   15       1.151116123925e-10       3.236774330418e-16       1.322004667243e-13       0.000000000000e+00       5.062229340426e-10       4.434346661650e-11      -3.748934385849e-14 
   16       1.162927790743e-10       3.579221377115e-16       1.409868437014e-13       0.000000000000e+00       4.550673733943e-10       4.021476832651e-11      -3.107609091012e-14 
   17       1.176193355381e-10       4.075695234089e-16       1.495972387604e-13       0.000000000000e+00       4.111899579782e-10       3.661515502099e-11      -2.016417971813e-14 
   18       1.190299850435e-10       4.781099564597e-16       1.583253070605e-13       0.000000000000e+00       3.731111722465e-10       3.347235048689e-11      -9.646096021219e-15 
   19       1.205356669890e-10       5.699214105261e-16       1.674047723864e-13       0.000000000000e+00       3.402262828479e-10       3.074359856529e-11      -2.158142132525e-15 
   20       1.221252095525e-10       6.810509923821e-16       1.769919795400e-13       0.000000000000e+00       3.112660352529e-10       2.832552233363e-11       5.408940209320e-16 
   21       1.238014879089e-10       8.108682725385e-16       1.870848709283e-13       0.000000000000e+00       2.857748634172e-10       2.617346214101e-11      -1.023493417742e-15 
   22       1.255401978878e-10       9.588870266017e-16       1.975464022532e-13       0.000000000000e+00       2.631425070329e-10       2.422984396223e-11      -5.143215285958e-15 
   23       1.273441782305e-10       1.125338341586e-15       2.080264249236e-13       0.000000000000e+00       2.430574136384e-10       2.248436789318e-11      -1.008549086516e-14 
   24       1.292036499282e-10       1.310480938286e-15       2.180654562878e-13       0.000000000000e+00       2.250548181721e-10       2.092040696860e-11      -1.398874654712e-14 
   25       1.311223977176e-10       1.514346631001e-15       2.273782936050e-13       0.000000000000e+00       2.089226376609e-10       1.952206207543e-11      -1.599991977168e-14 
   26       1.330916716775e-10       1.737129700464e-15       2.357341590049e-13       0.000000000000e+00       1.943685463576e-10       1.825913139637e-11      -1.575362256766e-14 
   27       1.351041350440e-10       1.980825063331e-15       2.430111564347e-13       0.000000000000e+00       1.812176781276e-10       1.711206682345e-11      -1.384648356069e-14 
   28       1.371442462455e-10       2.247979013015e-15       2.491525329559e-13       0.000000000000e+00       1.692430307013e-10       1.605778660542e-11      -1.126875309505e-14 
   29       1.392212518787e-10       2.540077427810e-15       2.542238618764e-13       0.000000000000e+00       1.583833158185e-10       1.509468743659e-11      -8.678590617052e-15 
   30       1.413408650440e-10       2.858273801342e-15       2.583686187173e-13       0.000000000000e+00       1.485217938167e-10       1.421964275913e-11      -6.749651578657e-15 
   31       1.434980809873e-10       3.203659770944e-15       2.617353631895e-13       0.000000000000e+00       1.394571386844e-10       1.342120969257e-11      -6.107353671008e-15 
   32       1.456956554050e-10       3.577158767367e-15       2.642812507181e-13       0.000000000000e+00       1.311424338045e-10       1.269079375312e-11      -6.583404449033e-15 
   33       1.479298155128e-10       3.979579163596e-15       2.658941511088e-13       0.000000000000e+00       1.235187720684e-10       1.201398482840e-11      -7.669339526452e-15 
   34       1.501898423776e-10       4.411676586119e-15       2.664442119576e-13       0.000000000000e+00       1.164793343477e-10       1.137329757676e-11      -8.794753578038e-15 
   35       1.524783597248e-10       4.874304886076e-15       2.657929936243e-13       0.000000000000e+00       1.099880163922e-10       1.077087953430e-11      -9.668739069815e-15 
   36       1.547963962117e-10       5.368309028112e-15       2.637848248914e-13       0.000000000000e+00       1.039926680479e-10       1.021303908484e-11      -1.004907416888e-14 
   37       1.571405103847e-10       5.894487314848e-15       2.602768492634e-13       0.000000000000e+00       9.841517732961e-11       9.703252424212e-12      -9.738020591922e-15 
   38       1.595142710020e-10       6.453612470574e-15       2.552556198444e-13       0.000000000000e+00       9.324109708266e-11       9.239552269820e-12      -8.885884253960e-15 
   39       1.619194010822e-10       7.046411067341e-15       2.487596415089e-13       0.000000000000e+00       8.845398246939e-11       8.815778973163e-12      -7.791415812426e-15 
   40       1.643519508575e-10       7.673553252444e-15       2.408498998638e-13       0.000000000000e+00       8.400812951330e-11       8.421876508753e-12      -6.826636369651e-15 
   41       1.668054543723e-10       8.335671302062e-15       2.315858522107e-13       0.000000000000e+00       7.984448984126e-11       8.046928717250e-12      -6.339374180189e-15 
   42       1.692830513571e-10       9.033431247444e-15       2.209407382227e-13       0.000000000000e+00       7.595078056602e-11       7.690213053541e-12      -6.311335346021e-15 
   43       1.717883198414e-10       9.767478473135e-15       2.088609841870e-13       0.000000000000e+00       7.231664681641e-11       7.353215682409e-12      -6.596692199453e-15 
   44       1.743215454344e-10       1.053841549914e-14       1.952888098727e-13       0.000000000000e+00       6.891562481911e-11       7.036508501394e-12      -7.012424075176e-15 
   45       1.768811147348e-10       1.134679375372e-14       1.801675224483e-13       0.000000000000e+00       6.571458901338e-11       6.739872957747e-12      -7.379235179482e-15 
   46       1.794689749257e-10       1.219309091997e-14       1.634602026937e-13       0.000000000000e+00       6.270848296459e-11       6.462914031958e-12      -7.664307493277e-15 
   47       1.820862414595e-10       1.307772323548e-14       1.451359431867e-13       0.000000000000e+00       5.989379047482e-11       6.204486602749e-12      -7.877318833190e-15 
   48       1.847313875530e-10       1.400104863214e-14       1.251645898817e-13       0.000000000000e+00       5.725806055752e-11       5.962433041706e-12      -8.031120729049e-15 
   49       1.874000114560e-10       1.496336427817e-14       1.035166802071e-13       0.000000000000e+00       5.477924310687e-11       5.733511003804e-12      -8.141930633576e-15 
   50       1.900871439400e-10       1.596490414779e-14       8.016300961240e-14       0.000000000000e+00       5.243232631695e-11       5.514321353811e-12      -8.228495003152e-15 
   51       1.927954490946e-10       1.700583665438e-14       5.507333611485e-14       0.000000000000e+00       5.021291416048e-11       5.304556407902e-12      -8.308864799457e-15 
   52       1.955288472543e-10       1.808626212623e-14       2.821721711436e-14       0.000000000000e+00       4.811890041393e-11       5.104508572014e-12      -8.403076980445e-15 
   53       1.982900588285e-10       1.920621032453e-14      -4.357272925646e-16       0.000000000000e+00       4.614341314815e-11       4.914122719319e-12      -8.534247500538e-15 
   54       2.010804911100e-10       2.036563798677e-14      -3.091589370009e-14       0.000000000000e+00       4.427449400952e-11       4.732971045975e-12      -8.728715090723e-15 
   55       2.039007179770e-10       2.156446416811e-14      -6.324902163499e-14       0.000000000000e+00       4.249874418610e-11       4.560468559348e-12      -9.007245547366e-15 
   56       2.067523178582e-10       2.280269217464e-14      -9.744063077500e-14       0.000000000000e+00       4.081405768857e-11       4.396639833390e-12      -9.355756459159e-15 
   57       2.096362940942e-10       2.408031361800e-14      -1.334878566544e-13       0.000000000000e+00       3.921948952529e-11       4.241498689617e-12      -9.747571716001e-15 
   58       2.125524339171e-10       2.539727230871e-14      -1.713837615849e-13       0.000000000000e+00       3.771140360343e-11       4.094808827444e-12      -1.015152375828e-14 
   59       2.154992183587e-10       2.675346327222e-14      -2.111172288558e-13       0.000000000000e+00       3.628330655623e-11       3.956068055222e-12      -1.053174906513e-14 
   60       2.184737321588e-10       2.814873176494e-14      -2.526728569334e-13       0.000000000000e+00       3.492568157027e-11       3.824492521272e-12      -1.084748364261e-14 
   61       2.214729652483e-10       2.958280801089e-14      -2.960335165580e-13       0.000000000000e+00       3.362862966335e-11       3.699234769187e-12      -1.106245971106e-14 
   62       2.244982623836e-10       3.105509651957e-14      -3.411889321012e-13       0.000000000000e+00       3.239086224381e-11       3.580130772635e-12      -1.117602313776e-14 
   63       2.275517169562e-10       3.256483751692e-14      -3.881288474075e-13       0.000000000000e+00       3.121244133725e-11       3.467093361336e-12      -1.119866952323e-14 
   64       2.306348225236e-10       3.411116408815e-14      -4.368405119809e-13       0.000000000000e+00       3.009207468278e-11       3.359885008686e-12      -1.114315748406e-14 
   65       2.337484268709e-10       3.569309915422e-14      -4.873086596759e-13       0.000000000000e+00       2.902703863849e-11       3.258109481855e-12      -1.102460877991e-14 
   66       2.368926860732e-10       3.730955244834e-14      -5.395154873891e-13       0.000000000000e+00       2.801310108711e-11       3.161203491895e-12      -1.086060844053e-14 
   67       2.400670185572e-10       3.895931749246e-14      -5.934406337506e-13       0.000000000000e+00       2.704444434148e-11       3.068428343842e-12      -1.067130489281e-14 
   68       2.432706934673e-10       4.064118743631e-14      -6.490622603247e-13       0.000000000000e+00       2.611521806537e-11       2.979059904797e-12      -1.047556826603e-14 
   69       2.465048368886e-10       4.235433658910e-14      -7.063605972433e-13       0.000000000000e+00       2.522473575750e-11       2.893021871039e-12      -1.027833756634e-14 
   70       2.497707514798e-10       4.409801111981e-14      -7.653150810325e-13       0.000000000000e+00       2.437319755407e-11       2.810366406950e-12      -1.008087779954e-14 
   71       2.530692889550e-10       4.587141705109e-14      -8.259033224357e-13       0.000000000000e+00       2.356011860633e-11       2.731083961376e-12      -9.884494274872e-15 
   72       2.564008203682e-10       4.767372027564e-14      -8.881011133022e-13       0.000000000000e+00       2.278429367454e-11       2.655099989789e-12      -9.690531918108e-15 
   73       2.597652063976e-10       4.950404657277e-14      -9.518824334758e-13       0.000000000000e+00       2.204376172184e-11       2.582271676473e-12      -9.500374584756e-15 
   74       2.631617676303e-10       5.136148162475e-14      -1.017219457684e-12       0.000000000000e+00       2.133577050824e-11       2.512384656689e-12      -9.315444373204e-15 
   75       2.665892548468e-10       5.324507103335e-14      -1.084082562425e-12       0.000000000000e+00       2.065674118447e-11       2.445149738853e-12      -9.137200937887e-15 
   76       2.700464443730e-10       5.515376595713e-14      -1.152439774910e-12       0.000000000000e+00       2.000315622152e-11       2.380279178690e-12      -8.967056792323e-15 
   77       2.735341151593e-10       5.708624854222e-14      -1.222254988642e-12       0.000000000000e+00       1.937448839742e-11       2.317738805124e-12      -8.806106905562e-15 
   78       2.770533799193e-10       5.904107454002e-14      -1.293489433445e-12       0.000000000000e+00       1.877074408114e-11       2.257536129219e-12      -8.655348319412e-15 
   79       2.806050754225e-10       6.101672378137e-14      -1.366102200060e-12       0.000000000000e+00       1.819157107461e-11       2.199643251032e-12      -8.515757413570e-15 
   80       2.841897455954e-10       6.301159907795e-14      -1.440050235597e-12       0.000000000000e+00       1.763624214043e-11       2.143995213068e-12      -8.388287496098e-15 
   81       2.878076246244e-10       6.502402512367e-14      -1.515288338981e-12       0.000000000000e+00       1.710363852953e-11       2.090488353728e-12      -8.273866393881e-15 
   82       2.914586200575e-10       6.705224739596e-14      -1.591769156400e-12       0.000000000000e+00       1.659223350882e-11       2.038978660766e-12      -8.173394043098e-15 
   83       2.951422959065e-10       6.909443105725e-14      -1.669443176751e-12       0.000000000000e+00       1.610007588888e-11       1.989280124735e-12      -8.087740079684e-15 
   84       2.988581530408e-10       7.114872702372e-14      -1.748259437448e-12       0.000000000000e+00       1.562526395591e-11       1.941211220097e-12      -8.017325897157e-15 
   85       3.026065607929e-10       7.321348516300e-14      -1.828167786241e-12       0.000000000000e+00       1.516749362248e-11       1.894746808806e-12      -7.960796490074e-15 
   86       3.063879495301e-10       7.528707459018e-14      -1.909116987753e-12       0.000000000000e+00       1.472673791949e-11       1.849888517345e-12      -7.916122988861e-15 
   87       3.102025153680e-10       7.736781967263e-14      -1.991054053742e-12       0.000000000000e+00       1.430277130210e-11       1.806618022734e-12      -7.880989361107e-15 
   88       3.140502082688e-10       7.945400006020e-14      -2.073924250483e-12       0.000000000000e+00       1.389516141952e-11       1.764896214858e-12      -7.852783018283e-15 
   89       3.179307201402e-10       8.154385071547e-14      -2.157671106155e-12       0.000000000000e+00       1.350326088475e-11       1.724662358779e-12      -7.828585422468e-15 
   90       3.218434729337e-10       8.363556194398e-14      -2.242236418230e-12       0.000000000000e+00       1.312619904435e-11       1.685833257064e-12      -7.805162693074e-15 
   91       3.257876067435e-10       8.572727942445e-14      -2.327560260857e-12       0.000000000000e+00       1.276287374817e-11       1.648302412096e-12      -7.778956213569e-15 
   92       3.297619679045e-10       8.781710423906e-14      -2.413580992246e-12       0.000000000000e+00       1.241194311916e-11       1.611939188404e-12      -7.746073238203e-15 
   93       3.337654556625e-10       8.990312184717e-14      -2.500236037317e-12       0.000000000000e+00       1.207214377054e-11       1.576620895691e-12      -7.703180253152e-15 
   94       3.377981476740e-10       9.198349392568e-14      -2.587464354232e-12       0.000000000000e+00       1.174331808104e-11       1.542336377098e-12      -7.650357159105e-15 
   95       3.418603225645e-10       9.405638046166e-14      -2.675204354209e-12       0.000000000000e+00       1.142552692394e-11       1.509096524328e-12      -7.588656988125e-15 
   96       3.459521095543e-10       9.611991246138e-14      -2.763393177107e-12       0.000000000000e+00       1.111873328718e-11       1.476902364503e-12      -7.519244356470e-15 
   97       3.500734814797e-10       9.817219237782e-14      -2.851966709451e-12       0.000000000000e+00       1.082279852418e-11       1.445744674374e-12      -7.443398463273e-15 
   98       3.542242478128e-10       1.002112945383e-13      -2.940859602464e-12       0.000000000000e+00       1.053747860474e-11       1.415603594546e-12      -7.362516089232e-15 
   99       3.584040476827e-10       1.022352655718e-13      -3.030005290091e-12       0.000000000000e+00       1.026242036582e-11       1.386448243686e-12      -7.278114595296e-15 
  100       3.626123428959e-10       1.042421248368e-13      -3.119336007032e-12       0.000000000000e+00       9.997157762459e-12       1.358236332750e-12      -7.191834921347e-15 
  101       3.668484109570e-10       1.062298648486e-13      -3.208782806763e-12       0.000000000000e+00       9.741108118573e-12       1.330913779193e-12      -7.105444584892e-15 
  102       3.711113380890e-10       1.081964517069e-13      -3.298275579570e-12       0.000000000000e+00       9.493568377832e-12       1.304414321189e-12      -7.020840679746e-15 
  103       3.754000122543e-10       1.101398255235e-13      -3.387743070577e-12       0.000000000000e+00       9.253711354496e-12       1.278659131848e-12      -6.940052874718e-15 
  104       3.797133542034e-10       1.120579517386e-13      -3.477113468081e-12       0.000000000000e+00       9.020773165705e-12       1.253575395375e-12      -6.864806904836e-15 
  105       3.840510611991e-10       1.139489820455e-13      -3.566316220258e-12       0.000000000000e+00       8.794652439153e-12       1.229155724316e-12      -6.795141431117e-15 
  106       3.884129512148e-10       1.158111161026e-13      -3.655280498620e-12       0.000000000000e+00       8.575385436966e-12       1.205406086876e-12      -6.730609059320e-15 
  107       3.927987295664e-10       1.176425535607e-13      -3.743934673624e-12       0.000000000000e+00       8.362960474098e-12       1.182327386447e-12      -6.670697353687e-15 
