# dimensionless total lensed [l(l+1)/2pi] C_l's
# for l=2 to 2500, i.e. number of multipoles equal to 2499
#
# -> if you prefer output in CAMB/HealPix/LensPix units/order, set 'format' to 'camb' in input file
# -> if you don't want to see such a header, set 'headers' to 'no' in input file
# -> for CMB lensing (phi), these are C_l^phi-phi for the lensing potential.
#    Remember the conversion factors:
#    C_l^dd (deflection) = l(l+1) C_l^phi-phi
#    C_l^gg (shear/convergence) = 1/4 (l(l+1))^2 C_l^phi-phi
#
# 1:l     2:TT                     3:EE                     4:TE                     5:BB                     6:phiphi                 7:TPhi                   8:Ephi               
    2       1.402137584463e-10       4.140317165989e-15       3.815574036234e-13       2.275746258295e-19       8.296177068785e-09       4.177643894138e-10      -1.839450386082e-12 
    3       1.331369033786e-10       5.339580648383e-15       4.251707213914e-13       4.552421793681e-19       5.106742846774e-09       2.979954894444e-10      -1.397700820470e-12 
    4       1.261153076761e-10       4.654425398733e-15       3.957083037750e-13       7.589416620973e-19       3.547623421079e-09       2.261705558847e-10      -9.207587692240e-13 
    5       1.207240204056e-10       3.130914936986e-15       3.353761769666e-13       1.138791992220e-18       2.646282244695e-09       1.787689649734e-10      -5.175954165254e-13 
    6       1.169224375271e-10       1.762233480637e-15       2.683495246416e-13       1.594937644506e-18       2.066322762594e-09       1.455043969874e-10      -2.186890948069e-13 
    7       1.144152674414e-10       9.517699321024e-16       2.087172227732e-13       2.127546050263e-18       1.666612989044e-09       1.211030102476e-10      -2.616020614875e-14 
    8       1.128169250744e-10       6.090669035101e-16       1.627717894139e-13       2.736804650987e-18       1.377312902104e-09       1.025735137592e-10       7.400822542333e-14 
    9       1.119558766070e-10       4.874374086368e-16       1.319437076922e-13       3.422917690298e-18       1.159804572566e-09       8.813759656187e-11       1.042268892844e-13 
   10       1.116523733531e-10       4.176140777297e-16       1.147557685266e-13       4.186102834925e-18       9.912666021380e-10       7.666905979392e-11       8.962434197071e-14 
   11       1.117334177365e-10       3.530582107272e-16       1.083605268979e-13       5.026587718601e-18       8.343253695917e-10       6.767336741377e-11       5.379361104028e-14 
   12       1.121793803086e-10       3.080626327519e-16       1.095059415988e-13       5.944606502623e-18       7.288284143876e-10       5.995149803896e-11       1.455726015806e-14 
   13       1.128631197413e-10       2.949822520122e-16       1.151547374116e-13       6.940396543561e-18       6.422490682440e-10       5.347050388557e-11      -1.639397984171e-14 
   14       1.137257713763e-10       3.070371350892e-16       1.230352762972e-13       8.014195252399e-18       5.702243732905e-10       4.793657217236e-11      -3.389936445266e-14 
   15       1.147857445632e-10       3.321923076651e-16       1.317481324302e-13       9.166237220343e-18       5.096148142008e-10       4.326840528711e-11      -3.791138792424e-14 
   16       1.159951861261e-10       3.669839915578e-16       1.405176920902e-13       1.039675167520e-17       4.580948115502e-10       3.927833752143e-11      -3.200939483765e-14 
   17       1.173197267376e-10       4.165232647326e-16       1.491560296283e-13       1.170596031889e-17       4.139080305225e-10       3.577327181526e-11      -2.131767953670e-14 
   18       1.187497396162e-10       4.866700161458e-16       1.578298835889e-13       1.309407541902e-17       3.755618177202e-10       3.268744740544e-11      -1.066723656932e-14 
   19       1.202900906002e-10       5.781682454004e-16       1.668004525072e-13       1.456129931446e-17       3.424477438607e-10       2.998863422413e-11      -2.786818725282e-15 
   20       1.218932542576e-10       6.893378179894e-16       1.763181051319e-13       1.610782173595e-17       3.132877177808e-10       2.758111258480e-11       3.663089023481e-16 
   21       1.235699198543e-10       8.193204424640e-16       1.863654762277e-13       1.773382191622e-17       2.876225845079e-10       2.546161271910e-11      -8.169830136628e-16 
   22       1.253172772852e-10       9.672477267374e-16       1.967603105856e-13       1.943946566752e-17       2.648371744537e-10       2.361646457896e-11      -4.734764171803e-15 
   23       1.271336223487e-10       1.133401592775e-15       2.071836013565e-13       2.122490888798e-17       2.446171448039e-10       2.199304183496e-11      -9.638405395941e-15 
   24       1.289961124991e-10       1.318253278754e-15       2.172240935254e-13       2.309029458630e-17       2.264939429925e-10       2.050570877300e-11      -1.360865015551e-14 
   25       1.309043797465e-10       1.521994150215e-15       2.265689173614e-13       2.503575804423e-17       2.102540646917e-10       1.913058324125e-11      -1.579292633295e-14 
   26       1.328515839655e-10       1.744879358121e-15       2.349456385285e-13       2.706142322138e-17       1.956034401519e-10       1.785579480146e-11      -1.581685480975e-14 
   27       1.348468922551e-10       1.988503701344e-15       2.422757584504e-13       2.916740778210e-17       1.823661328875e-10       1.669905147055e-11      -1.414207905033e-14 
   28       1.368933494407e-10       2.254918049791e-15       2.485594603703e-13       3.135382064643e-17       1.703136311122e-10       1.567568060748e-11      -1.160172148006e-14 
   29       1.389940676860e-10       2.545676422263e-15       2.538187353298e-13       3.362077046766e-17       1.593839712891e-10       1.477111634246e-11      -8.884121509273e-15 
   30       1.411379184405e-10       2.862233547122e-15       2.581070182344e-13       3.596835845898e-17       1.494592126750e-10       1.394729303516e-11      -6.772294936580e-15 
   31       1.433033184652e-10       3.205989831579e-15       2.614919458704e-13       3.839667841957e-17       1.403362794563e-10       1.315994455748e-11      -6.006025392757e-15 
   32       1.454952681996e-10       3.577865487454e-15       2.639774920588e-13       4.090582783955e-17       1.319679944465e-10       1.241244493469e-11      -6.430240928617e-15 
   33       1.477196018857e-10       3.978552896275e-15       2.655539366035e-13       4.349590064676e-17       1.242952975779e-10       1.172101260651e-11      -7.515104198424e-15 
   34       1.499747340711e-10       4.408686554632e-15       2.661911651245e-13       4.616698599704e-17       1.172109006040e-10       1.109698459330e-11      -8.667451137974e-15 
   35       1.522606418355e-10       4.869090145345e-15       2.657448784895e-13       4.891917439599e-17       1.106784411905e-10       1.053457313875e-11      -9.594546164421e-15 
   36       1.545712296730e-10       5.360606102657e-15       2.640145348276e-13       5.175255376507e-17       1.046453164950e-10       1.001790067157e-11      -1.005849749639e-14 
   37       1.568969175586e-10       5.884039162758e-15       2.608074827062e-13       5.466720782826e-17       9.903279087315e-11       9.529125884897e-12      -9.860638773841e-15 
   38       1.592450267629e-10       6.440199557838e-15       2.560827049309e-13       5.766321586579e-17       9.382629349248e-11       9.067425389811e-12      -9.126058937263e-15 
   39       1.616250194239e-10       7.029868563196e-15       2.498543547939e-13       6.074065299167e-17       8.900926905437e-11       8.635739341080e-12      -8.116235750951e-15 
   40       1.640424293418e-10       7.653783245443e-15       2.421546926262e-13       6.389959030174e-17       8.453571586197e-11       8.235488626639e-12      -7.158363353248e-15 
   41       1.664988014939e-10       8.312625924358e-15       2.330219344722e-13       6.714009259986e-17       8.034620102097e-11       7.866397835544e-12      -6.565054026239e-15 
   42       1.689926390468e-10       9.006995397314e-15       2.224563731796e-13       7.046221053462e-17       7.642835018028e-11       7.526273293474e-12      -6.351721668157e-15 
   43       1.715179579283e-10       9.737421470931e-15       2.104518409415e-13       7.386598600922e-17       7.277172644822e-11       7.210887796428e-12      -6.434397490712e-15 
   44       1.740634523597e-10       1.050436843331e-14       1.970079317860e-13       7.735145420166e-17       6.934967929222e-11       6.913838096762e-12      -6.704857069672e-15 
   45       1.766171890529e-10       1.130826497411e-14       1.821190029489e-13       8.091864011766e-17       6.612885578385e-11       6.628440074002e-12      -7.051038670706e-15 
   46       1.791834250118e-10       1.214961268603e-14       1.657368032417e-13       8.456754725505e-17       6.310416622659e-11       6.354463900001e-12      -7.429217086924e-15 
   47       1.817700512019e-10       1.302890417241e-14       1.477970002433e-13       8.829816538105e-17       6.027207667521e-11       6.093142441762e-12      -7.810779688234e-15 
   48       1.843837340618e-10       1.394659104993e-14       1.282289620403e-13       9.211047330086e-17       5.762006363074e-11       5.845252802599e-12      -8.161864460899e-15 
   49       1.870297612526e-10       1.490308244257e-14       1.069553056364e-13       9.600443856524e-17       5.512594562069e-11       5.611075892260e-12      -8.443080374430e-15 
   50       1.897115727507e-10       1.589871995445e-14       8.390458540878e-14       9.998001664100e-17       5.276456014171e-11       5.390474063371e-12      -8.622237043970e-15 
   51       1.924295619374e-10       1.693369807361e-14       5.905446647317e-14       1.040371488350e-16       5.053148184312e-11       5.183242661726e-12      -8.717255958168e-15 
   52       1.951816824466e-10       1.800811955952e-14       3.239948963895e-14       1.081757633013e-16       4.842458697156e-11       4.988784014835e-12      -8.764423656081e-15 
   53       1.979635693311e-10       1.912201452503e-14       3.939118412929e-15       1.123957752189e-16       4.643695559856e-11       4.805963659309e-12      -8.806725134273e-15 
   54       2.007683700044e-10       2.027533782347e-14      -2.632209423594e-14       1.166970864741e-16       4.455654886491e-11       4.633075467045e-12      -8.894176415851e-15 
   55       2.035893000879e-10       2.146800056321e-14      -5.837763420719e-14       1.210795922878e-16       4.276987908093e-11       4.468318587666e-12      -9.070353998193e-15 
   56       2.064284417715e-10       2.269997980500e-14      -9.222970336329e-14       1.255432037520e-16       4.107482709703e-11       4.311446915470e-12      -9.327302604576e-15 
   57       2.092898350357e-10       2.397123153917e-14      -1.278809027532e-13       1.300878303355e-16       3.947044371121e-11       4.162468301267e-12      -9.640008070798e-15 
   58       2.121768827201e-10       2.528165769043e-14      -1.653311323571e-13       1.347133733836e-16       3.795307223440e-11       4.021154029165e-12      -9.979018277419e-15 
   59       2.150922876302e-10       2.663110483468e-14      -2.045775527020e-13       1.394197260707e-16       3.651618130052e-11       3.887023883655e-12      -1.031023793485e-14 
   60       2.180379896445e-10       2.801936291571e-14      -2.456145464774e-13       1.442067733536e-16       3.515019767665e-11       3.759331216694e-12      -1.059472336844e-14 
   61       2.210153290403e-10       2.944611590131e-14      -2.884346215694e-13       1.490744062193e-16       3.384516330356e-11       3.637283071640e-12      -1.079726591629e-14 
   62       2.240257215933e-10       3.091078371161e-14      -3.330314438627e-13       1.540225682724e-16       3.259978157874e-11       3.520792075152e-12      -1.091485776231e-14 
   63       2.270700240964e-10       3.241264237126e-14      -3.793974201675e-13       1.590512195691e-16       3.141411416825e-11       3.409867584839e-12      -1.095428048574e-14 
   64       2.301482669007e-10       3.395086618666e-14      -4.275228085266e-13       1.641603236428e-16       3.028685991192e-11       3.304388198327e-12      -1.092395244927e-14 
   65       2.332595982001e-10       3.552452493785e-14      -4.773957097011e-13       1.693498479110e-16       2.921527724423e-11       3.204094278514e-12      -1.083400244012e-14 
   66       2.364022283160e-10       3.713258107031e-14      -5.290020586570e-13       1.746197640816e-16       2.819510661511e-11       3.108580478833e-12      -1.069634331121e-14 
   67       2.395733739823e-10       3.877388688677e-14      -5.823256160508e-13       1.799700485597e-16       2.722049291072e-11       3.017288268507e-12      -1.052474562229e-14 
   68       2.427703450953e-10       4.044729362130e-14      -6.373483174278e-13       1.854006922769e-16       2.628554827201e-11       2.929652072257e-12      -1.033267532633e-14 
   69       2.459941852092e-10       4.215201060284e-14      -6.940514220102e-13       1.909117315858e-16       2.538958168468e-11       2.845588783478e-12      -1.012613343964e-14 
   70       2.492466720008e-10       4.388731415734e-14      -7.524145824585e-13       1.965032243848e-16       2.453279454391e-11       2.765094467103e-12      -9.909491126335e-15 
   71       2.525292140511e-10       4.565244221698e-14      -8.124155083793e-13       2.021752418844e-16       2.371469902766e-11       2.688096038882e-12      -9.687613441145e-15 
   72       2.558428243490e-10       4.744659437352e-14      -8.740299669594e-13       2.079278692547e-16       2.293408247136e-11       2.614447719403e-12      -9.465875784983e-15 
   73       2.591880937951e-10       4.926893193149e-14      -9.372317836015e-13       2.137612062731e-16       2.218897174267e-11       2.543927488106e-12      -9.250180360544e-15 
   74       2.625651647057e-10       5.111857796153e-14      -1.001992842558e-12       2.196753679715e-16       2.147659761614e-11       2.476233537300e-12      -9.046972627888e-15 
   75       2.659737043163e-10       5.299461735361e-14      -1.068283087568e-12       2.256704852840e-16       2.079335914799e-11       2.410980726185e-12      -8.863257760027e-15 
   76       2.694132940704e-10       5.489603640223e-14      -1.136069954444e-12       2.317467007668e-16       2.013571710623e-11       2.347799123338e-12      -8.704991211991e-15 
   77       2.728847380096e-10       5.682152872543e-14      -1.205316547995e-12       2.379041534243e-16       1.950314110244e-11       2.286658218463e-12      -8.571875224962e-15 
   78       2.763889459451e-10       5.876965388649e-14      -1.275983132265e-12       2.441429922795e-16       1.889563765663e-11       2.227595664568e-12      -8.461638927539e-15 
   79       2.799265211598e-10       6.073889355483e-14      -1.348027658254e-12       2.504633815938e-16       1.831285251265e-11       2.170619005316e-12      -8.371563431753e-15 
   80       2.834977424381e-10       6.272765031935e-14      -1.421405752896e-12       2.568655014135e-16       1.775405406391e-11       2.115704222454e-12      -8.298464948527e-15 
   81       2.871025460959e-10       6.473424650169e-14      -1.496070708056e-12       2.633495481162e-16       1.721811677916e-11       2.062794283238e-12      -8.238677903147e-15 
   82       2.907405080103e-10       6.675692296961e-14      -1.571973469508e-12       2.699157349572e-16       1.670350462822e-11       2.011797687852e-12      -8.188038050728e-15 
   83       2.944108256495e-10       6.879383795028e-14      -1.649062625926e-12       2.765642926160e-16       1.620825450774e-11       1.962587016839e-12      -8.141865591676e-15 
   84       2.981126721915e-10       7.084314004106e-14      -1.727285742819e-12       2.832954648936e-16       1.573045314764e-11       1.915033186906e-12      -8.095844470662e-15 
   85       3.018463656950e-10       7.290320374811e-14      -1.806593642536e-12       2.901094937874e-16       1.526979497509e-11       1.869117925098e-12      -8.048864744230e-15 
   86       3.056123617061e-10       7.497243100092e-14      -1.886936816903e-12       2.970066329324e-16       1.482625332413e-11       1.824837363927e-12      -8.000622651438e-15 
   87       3.094108868584e-10       7.704918048605e-14      -1.968264156779e-12       3.039871526884e-16       1.439960175887e-11       1.782167150949e-12      -7.950764530027e-15 
   88       3.132419271566e-10       7.913176770748e-14      -2.050522963645e-12       3.110513406052e-16       1.398940579305e-11       1.741061596326e-12      -7.898884993802e-15 
   89       3.171052162599e-10       8.121846504694e-14      -2.133658961198e-12       3.181995018874e-16       1.359501460962e-11       1.701452820390e-12      -7.844525110003e-15 
   90       3.210002237652e-10       8.330750182425e-14      -2.217616306940e-12       3.254319598593e-16       1.321555278024e-11       1.663249901216e-12      -7.787170576674e-15 
   91       3.249261434910e-10       8.539706435767e-14      -2.302337603767e-12       3.327490564300e-16       1.284991198486e-11       1.626338022177e-12      -7.726249900044e-15 
   92       3.288818817600e-10       8.748529602418e-14      -2.387763911564e-12       3.401511525583e-16       1.249674273124e-11       1.590577619516e-12      -7.661132571895e-15 
   93       3.328663954080e-10       8.957032223234e-14      -2.473835129384e-12       3.476386340314e-16       1.215477440300e-11       1.555838193999e-12      -7.591355869590e-15 
   94       3.368797894086e-10       9.165032950585e-14      -2.560491182577e-12       3.552119287851e-16       1.182384845140e-11       1.522107414452e-12      -7.517348234339e-15 
   95       3.409223634362e-10       9.372349846106e-14      -2.647671036467e-12       3.628714930606e-16       1.150402600897e-11       1.489396923694e-12      -7.439811825459e-15 
   96       3.449942700276e-10       9.578798035118e-14      -2.735312358122e-12       3.706178068532e-16       1.119526968380e-11       1.457708764971e-12      -7.359504889674e-15 
   97       3.490955076657e-10       9.784189746866e-14      -2.823351533036e-12       3.784513744503e-16       1.089743978599e-11       1.427035005356e-12      -7.277243076757e-15 
   98       3.532259138638e-10       9.988334354743e-14      -2.911723681799e-12       3.863727249692e-16       1.061029055410e-11       1.397357359139e-12      -7.193900755168e-15 
   99       3.573851582496e-10       1.019103841653e-13      -3.000362676785e-12       3.943824128951e-16       1.033346638160e-11       1.368646811222e-12      -7.110412327694e-15 
  100       3.615727356490e-10       1.039210571460e-13      -3.089201158820e-12       4.024810186190e-16       1.006649804335e-11       1.340863240511e-12      -7.027773547085e-15 
  101       3.657879591703e-10       1.059133729621e-13      -3.178170553868e-12       4.106691489756e-16       9.808798922023e-12       1.313955043314e-12      -6.947042831699e-15 
  102       3.700299532880e-10       1.078853151364e-13      -3.267201089701e-12       4.189474377810e-16       9.559661234587e-12       1.287858756729e-12      -6.869342581134e-15 
  103       3.742976469275e-10       1.098348406451e-13      -3.356221812585e-12       4.273165463710e-16       9.318252258747e-12       1.262498682039e-12      -6.795860491871e-15 
  104       3.785899966992e-10       1.117599318268e-13      -3.445161271170e-12       4.357771482642e-16       9.083803039330e-12       1.237804578018e-12      -6.727570286821e-15 
  105       3.829067058451e-10       1.136587592305e-13      -3.533949637479e-12       4.443298796359e-16       8.856211666798e-12       1.213768274042e-12      -6.664348105588e-15 
  106       3.872475899701e-10       1.155295416184e-13      -3.622516904861e-12       4.529753831255e-16       8.635514837282e-12       1.190394038081e-12      -6.605738648469e-15 
  107       3.916123512303e-10       1.173704973801e-13      -3.710792270080e-12       4.617143234729e-16       8.421701011597e-12       1.167681013822e-12      -6.551223357215e-15 
