# dimensionless total [l(l+1)/2pi] C_l's
# for l=2 to 3000, i.e. number of multipoles equal to 2999
#
# -> if you prefer output in CAMB/HealPix/LensPix units/order, set 'format' to 'camb' in input file
# -> if you don't want to see such a header, set 'headers' to 'no' in input file
# -> for CMB lensing (phi), these are C_l^phi-phi for the lensing potential.
#    Remember the conversion factors:
#    C_l^dd (deflection) = l(l+1) C_l^phi-phi
#    C_l^gg (shear/convergence) = 1/4 (l(l+1))^2 C_l^phi-phi
#
# 1:l     2:TT                     3:EE                     4:TE                     5:BB                     6:phiphi                 7:TPhi                   8:Ephi               
    2       1.412004962544e-10       4.084719394999e-15       3.777792810968e-13       0.000000000000e+00       8.293409634857e-09       4.245495147723e-10      -1.823952797620e-12 
    3       1.339106796427e-10       5.255238546907e-15       4.211924896366e-13       0.000000000000e+00       5.090714228857e-09       3.027395155206e-10      -1.384935093506e-12 
    4       1.267434329615e-10       4.568596616909e-15       3.921589580653e-13       0.000000000000e+00       3.542049818561e-09       2.298216726530e-10      -9.104831347409e-13 
    5       1.212606777255e-10       3.064705544094e-15       3.324590254777e-13       0.000000000000e+00       2.645421817455e-09       1.816962792672e-10      -5.099172555292e-13 
    6       1.173857129575e-10       1.721141325594e-15       2.660752591522e-13       0.000000000000e+00       2.067281012079e-09       1.478373200284e-10      -2.136319499211e-13 
    7       1.147717695623e-10       9.295575366513e-16       2.070903773770e-13       0.000000000000e+00       1.668313238612e-09       1.229694379776e-10      -2.348299298735e-14 
    8       1.131596573529e-10       5.959409793032e-16       1.617289354667e-13       0.000000000000e+00       1.378869814131e-09       1.041479568461e-10       7.473740183531e-14 
    9       1.122546048302e-10       4.766599417223e-16       1.313985501973e-13       0.000000000000e+00       1.160783476258e-09       8.955090790798e-11       1.035871960337e-13 
   10       1.119237148630e-10       4.070433697414e-16       1.146368322721e-13       0.000000000000e+00       9.917631719038e-10       7.795190901862e-11       8.824883303346e-14 
   11       1.119954461731e-10       3.430634423755e-16       1.085161605220e-13       0.000000000000e+00       8.354946111997e-10       6.878522653238e-11       5.229979642020e-14 
   12       1.123607661589e-10       2.990823706715e-16       1.097902331138e-13       0.000000000000e+00       7.300256760980e-10       6.086809554902e-11       1.332381837105e-14 
   13       1.130178822005e-10       2.867217147575e-16       1.155849174629e-13       0.000000000000e+00       6.434363796143e-10       5.424283506178e-11      -1.711144245982e-14 
   14       1.139160788332e-10       2.988801984213e-16       1.236368705301e-13       0.000000000000e+00       5.713977818368e-10       4.879212886017e-11      -3.382402832120e-14 
   15       1.149380591438e-10       3.238794089803e-16       1.324350385241e-13       0.000000000000e+00       5.107699403688e-10       4.405955752931e-11      -3.734866488900e-14 
   16       1.161127497872e-10       3.588305722688e-16       1.413013905577e-13       0.000000000000e+00       4.592208151769e-10       3.987967372532e-11      -3.136499247437e-14 
   17       1.174337089834e-10       4.089285098933e-16       1.500407303166e-13       0.000000000000e+00       4.149998774123e-10       3.626350142708e-11      -2.073670886841e-14 
   18       1.188506122195e-10       4.797057313536e-16       1.588753916043e-13       0.000000000000e+00       3.766191257021e-10       3.313341182047e-11      -1.030183326923e-14 
   19       1.203682502191e-10       5.717460426518e-16       1.680224132902e-13       0.000000000000e+00       3.434704967732e-10       3.043015021961e-11      -2.726519832873e-15 
   20       1.219543837160e-10       6.833141843727e-16       1.776483386310e-13       0.000000000000e+00       3.142760762703e-10       2.803595383490e-11       1.623654011086e-16 
   21       1.236147475078e-10       8.136829316877e-16       1.877684832070e-13       0.000000000000e+00       2.885771138404e-10       2.590651508200e-11      -1.189238490701e-15 
   22       1.253356240768e-10       9.621857669601e-16       1.982676880109e-13       0.000000000000e+00       2.657585090820e-10       2.399019664771e-11      -5.157080962119e-15 
   23       1.271183092956e-10       1.129154110310e-15       2.088069643504e-13       0.000000000000e+00       2.455063938451e-10       2.228067906174e-11      -1.001603955111e-14 
   24       1.289493197039e-10       1.315034638011e-15       2.189301251479e-13       0.000000000000e+00       2.273523881270e-10       2.076276823020e-11      -1.388379477144e-14 
   25       1.308403021350e-10       1.519887656977e-15       2.283308119346e-13       0.000000000000e+00       2.110826039018e-10       1.941056707032e-11      -1.589220730740e-14 
   26       1.327924648322e-10       1.743863998435e-15       2.367536198567e-13       0.000000000000e+00       1.964023003430e-10       1.818026784123e-11      -1.566377329229e-14 
   27       1.347932962078e-10       1.988847997758e-15       2.440926418810e-13       0.000000000000e+00       1.831360812843e-10       1.704782973084e-11      -1.380436081160e-14 
   28       1.368179179790e-10       2.257264267733e-15       2.503183611461e-13       0.000000000000e+00       1.710561426972e-10       1.599003477175e-11      -1.131376371871e-14 
   29       1.388754953321e-10       2.550612434134e-15       2.554985942712e-13       0.000000000000e+00       1.601006284731e-10       1.501137360277e-11      -8.823965766885e-15 
   30       1.409750805263e-10       2.870114422746e-15       2.597698999355e-13       0.000000000000e+00       1.501512628653e-10       1.411877599956e-11      -6.963781979979e-15 
   31       1.431150255570e-10       3.216932124302e-15       2.632700304972e-13       0.000000000000e+00       1.410044649389e-10       1.331148802679e-11      -6.316158043451e-15 
   32       1.452979228145e-10       3.591991050586e-15       2.659371048090e-13       0.000000000000e+00       1.326131571199e-10       1.258355632052e-11      -6.722779551561e-15 
   33       1.475185121106e-10       3.996077206546e-15       2.676338624214e-13       0.000000000000e+00       1.249184617650e-10       1.192063244535e-11      -7.706970100131e-15 
   34       1.497642711591e-10       4.429915509827e-15       2.682118663718e-13       0.000000000000e+00       1.178131497624e-10       1.130378573739e-11      -8.735613904457e-15 
   35       1.520361513197e-10       4.894315716909e-15       2.675619081654e-13       0.000000000000e+00       1.112608319965e-10       1.072828007593e-11      -9.546279888515e-15 
   36       1.543333081179e-10       5.390067547404e-15       2.655794017643e-13       0.000000000000e+00       1.052087421704e-10       1.019045418741e-11      -9.926452032997e-15 
   37       1.566509060864e-10       5.917932476955e-15       2.621680228871e-13       0.000000000000e+00       9.957791541467e-11       9.684714980651e-12      -9.701004169300e-15 
   38       1.589944084391e-10       6.478763972244e-15       2.573002115343e-13       0.000000000000e+00       9.435381524737e-11       9.211560549862e-12      -8.993126896141e-15 
   39       1.613688812239e-10       7.073422134063e-15       2.509771020643e-13       0.000000000000e+00       8.951994704822e-11       8.771751769339e-12      -8.052668539248e-15 
   40       1.637744760797e-10       7.702739180677e-15       2.432133235701e-13       0.000000000000e+00       8.503029899083e-11       8.363909167023e-12      -7.191449171311e-15 
   41       1.662080837358e-10       8.367492877613e-15       2.340270496492e-13       0.000000000000e+00       8.082538117692e-11       7.985162673891e-12      -6.704767114184e-15 
   42       1.686702431337e-10       9.068320840884e-15       2.234043801662e-13       0.000000000000e+00       7.689281340347e-11       7.633835257753e-12      -6.595528867066e-15 
   43       1.711595703595e-10       9.805775244259e-15       2.113246751795e-13       0.000000000000e+00       7.322212616166e-11       7.307296822786e-12      -6.767076467745e-15 
   44       1.736703746592e-10       1.058034167136e-14       1.977703234288e-13       0.000000000000e+00       6.978657655017e-11       7.001051485023e-12      -7.096322937236e-15 
   45       1.761958879792e-10       1.139245600721e-14       1.827212779333e-13       0.000000000000e+00       6.655269933368e-11       6.710119115102e-12      -7.458670225969e-15 
   46       1.787400253782e-10       1.224256949833e-14       1.661366254572e-13       0.000000000000e+00       6.351541771914e-11       6.434005351440e-12      -7.815561263084e-15 
   47       1.813084760945e-10       1.313109710580e-14       1.479675714567e-13       0.000000000000e+00       6.067122580835e-11       6.172977152844e-12      -8.150276613173e-15 
   48       1.839052112612e-10       1.405839644280e-14       1.281621922247e-13       0.000000000000e+00       5.800760010842e-11       5.926616838503e-12      -8.443500448687e-15 
   49       1.865323017972e-10       1.502476540269e-14       1.066651558778e-13       0.000000000000e+00       5.550232879982e-11       5.693768536931e-12      -8.673189993044e-15 
   50       1.891903728108e-10       1.603043137018e-14       8.342437271906e-14       0.000000000000e+00       5.313020518315e-11       5.472980501479e-12      -8.822667068039e-15 
   51       1.918805347129e-10       1.707552090559e-14       5.841372175213e-14       0.000000000000e+00       5.088680602036e-11       5.264097836282e-12      -8.907784923280e-15 
   52       1.946026614958e-10       1.816007773167e-14       3.161601073174e-14       0.000000000000e+00       4.877000815423e-11       5.067009531487e-12      -8.956909859902e-15 
   53       1.973546514868e-10       1.928406772888e-14       3.016631909434e-15       0.000000000000e+00       4.677287195420e-11       4.881160883109e-12      -9.003593914131e-15 
   54       2.001322751925e-10       2.044737616733e-14      -2.739639089090e-14       0.000000000000e+00       4.488331713410e-11       4.705523276873e-12      -9.086831222935e-15 
   55       2.029310074833e-10       2.164987220908e-14      -5.963257644539e-14       0.000000000000e+00       4.308780838983e-11       4.538901223032e-12      -9.240478699415e-15 
   56       2.057524057213e-10       2.289162752042e-14      -9.369966716124e-14       0.000000000000e+00       4.138422717035e-11       4.381012002486e-12      -9.457853126841e-15 
   57       2.085990495831e-10       2.417274711916e-14      -1.296030347719e-13       0.000000000000e+00       3.977162970015e-11       4.231621301964e-12      -9.718788267324e-15 
   58       2.114726223256e-10       2.549330671854e-14      -1.673454362937e-13       0.000000000000e+00       3.824635301556e-11       4.090212756906e-12      -9.999537806276e-15 
   59       2.143738359420e-10       2.685335258013e-14      -2.069269755701e-13       0.000000000000e+00       3.680184700921e-11       3.955970874952e-12      -1.027260954832e-14 
   60       2.173023563183e-10       2.825290136671e-14      -2.483450648165e-13       0.000000000000e+00       3.542850647443e-11       3.827763959435e-12      -1.050659961319e-14 
   61       2.202575554218e-10       2.969182961495e-14      -2.915938530975e-13       0.000000000000e+00       3.411633929244e-11       3.704457148306e-12      -1.067315170388e-14 
   62       2.232411344835e-10       3.116951349546e-14      -3.366624488500e-13       0.000000000000e+00       3.286405081134e-11       3.585972271593e-12      -1.077003539061e-14 
   63       2.262549594853e-10       3.268510756396e-14      -3.835362283304e-13       0.000000000000e+00       3.167170979319e-11       3.472436670418e-12      -1.080297734797e-14 
   64       2.293002384432e-10       3.423764442921e-14      -4.321972792037e-13       0.000000000000e+00       3.053801578152e-11       3.363867602565e-12      -1.077905246588e-14 
   65       2.323774728048e-10       3.582603110356e-14      -4.826243451732e-13       0.000000000000e+00       2.946022113439e-11       3.260165640281e-12      -1.070674411873e-14 
   66       2.354864088467e-10       3.744904535361e-14      -5.347927706120e-13       0.000000000000e+00       2.843405305756e-11       3.161108068085e-12      -1.059600443437e-14 
   67       2.386259890708e-10       3.910533205077e-14      -5.886744451934e-13       0.000000000000e+00       2.745363563751e-11       3.066342280572e-12      -1.045831456319e-14 
   68       2.417950412179e-10       4.079355014242e-14      -6.442405513104e-13       0.000000000000e+00       2.651305948444e-11       2.975490941217e-12      -1.030479919277e-14 
   69       2.449946160661e-10       4.251285630416e-14      -7.014705765512e-13       0.000000000000e+00       2.561163426786e-11       2.888506959908e-12      -1.013999172910e-14 
   70       2.482260381958e-10       4.426251318253e-14      -7.603450363115e-13       0.000000000000e+00       2.474956530995e-11       2.805378913222e-12      -9.966908242306e-15 
   71       2.514901810825e-10       4.604174764481e-14      -8.208428486046e-13       0.000000000000e+00       2.392636495848e-11       2.726021970821e-12      -9.788891758617e-15 
   72       2.547874373584e-10       4.784975098172e-14      -8.829413503750e-13       0.000000000000e+00       2.314081675823e-11       2.650274151595e-12      -9.609622765912e-15 
   73       2.581176890751e-10       4.968567911027e-14      -9.466163138113e-13       0.000000000000e+00       2.239093962248e-11       2.577892579803e-12      -9.433129719222e-15 
   74       2.614802779647e-10       5.154865277655e-14      -1.011841962660e-12       0.000000000000e+00       2.167395200444e-11       2.508549741216e-12      -9.263799546256e-15 
   75       2.648739757027e-10       5.343775775848e-14      -1.078590988538e-12       0.000000000000e+00       2.098623606875e-11       2.441829739258e-12      -9.106388152915e-15 
   76       2.682975605006e-10       5.535198010217e-14      -1.146833512275e-12       0.000000000000e+00       2.032423598578e-11       2.377332089668e-12      -8.964931941652e-15 
   77       2.717517340111e-10       5.728999774795e-14      -1.216533713208e-12       0.000000000000e+00       1.968742112928e-11       2.315013231898e-12      -8.839229989777e-15 
   78       2.752375015759e-10       5.925035109822e-14      -1.287652612005e-12       0.000000000000e+00       1.907580064939e-11       2.254900781467e-12      -8.727736485432e-15 
   79       2.787555798806e-10       6.123150350185e-14      -1.360149065874e-12       0.000000000000e+00       1.848902088274e-11       2.196990002411e-12      -8.628590970004e-15 
   80       2.823063796501e-10       6.323184012484e-14      -1.433979763240e-12       0.000000000000e+00       1.792634867892e-11       2.141242268590e-12      -8.539606308026e-15 
   81       2.858899883434e-10       6.524966682086e-14      -1.509099218431e-12       0.000000000000e+00       1.738665472680e-11       2.087583524995e-12      -8.458256657068e-15 
   82       2.895061528496e-10       6.728320900192e-14      -1.585459766354e-12       0.000000000000e+00       1.686839688099e-11       2.035902749054e-12      -8.381665437640e-15 
   83       2.931542621827e-10       6.933061050890e-14      -1.663011557176e-12       0.000000000000e+00       1.636960348825e-11       1.986050411940e-12      -8.306593303087e-15 
   84       2.968336792687e-10       7.139000217223e-14      -1.741703358753e-12       0.000000000000e+00       1.588835279823e-11       1.937877508759e-12      -8.230159520440e-15 
   85       3.005448374084e-10       7.345972302674e-14      -1.821485128414e-12       0.000000000000e+00       1.542433903527e-11       1.891363453927e-12      -8.152169870502e-15 
   86       3.042882947024e-10       7.553813386936e-14      -1.902305859751e-12       0.000000000000e+00       1.497753658505e-11       1.846506665601e-12      -8.073154402004e-15 
   87       3.080643898529e-10       7.762355087098e-14      -1.984112820913e-12       0.000000000000e+00       1.454771878036e-11       1.803285037688e-12      -7.993668624805e-15 
   88       3.118732307252e-10       7.971424561829e-14      -2.066851562864e-12       0.000000000000e+00       1.413444956506e-11       1.761655082986e-12      -7.914293806024e-15 
   89       3.157146829109e-10       8.180844515564e-14      -2.150465927638e-12       0.000000000000e+00       1.373707515801e-11       1.721551076318e-12      -7.835637266171e-15 
   90       3.195883582897e-10       8.390433202694e-14      -2.234898056592e-12       0.000000000000e+00       1.335471571705e-11       1.682884197667e-12      -7.758332675279e-15 
   91       3.234936035924e-10       8.600004431752e-14      -2.320088398666e-12       0.000000000000e+00       1.298625700295e-11       1.645541675314e-12      -7.683040349035e-15 
   92       3.274294889628e-10       8.809367569593e-14      -2.405975718636e-12       0.000000000000e+00       1.263034204337e-11       1.609385928977e-12      -7.610447544917e-15 
   93       3.313951042337e-10       9.018330403531e-14      -2.492497726671e-12       0.000000000000e+00       1.228569319016e-11       1.574287388215e-12      -7.541109222279e-15 
   94       3.353905235694e-10       9.226708211026e-14      -2.579593057389e-12       0.000000000000e+00       1.195215180536e-11       1.540230454989e-12      -7.474942283313e-15 
   95       3.394159654339e-10       9.434316068164e-14      -2.667199605098e-12       0.000000000000e+00       1.162978025909e-11       1.507221967775e-12      -7.411655459472e-15 
   96       3.434714906870e-10       9.640966156093e-14      -2.755253945578e-12       0.000000000000e+00       1.131854171917e-11       1.475258556977e-12      -7.350900201446e-15 
   97       3.475569953713e-10       9.846467804437e-14      -2.843691352866e-12       0.000000000000e+00       1.101829635033e-11       1.444326250312e-12      -7.292268785375e-15 
   98       3.516722034981e-10       1.005062753472e-13      -2.932445816040e-12       0.000000000000e+00       1.072879751337e-11       1.414400078204e-12      -7.235292419047e-15 
   99       3.558166598339e-10       1.025324910376e-13      -3.021450056003e-12       0.000000000000e+00       1.044968796444e-11       1.385443679175e-12      -7.179439348112e-15 
  100       3.599897226870e-10       1.045413354714e-13      -3.110635542266e-12       0.000000000000e+00       1.018049605418e-11       1.357408905238e-12      -7.124112962288e-15 
  101       3.641905566933e-10       1.065307922255e-13      -3.199932509734e-12       0.000000000000e+00       9.920631927004e-12       1.330235427287e-12      -7.068649901564e-15 
  102       3.684181256030e-10       1.084988185326e-13      -3.289269975492e-12       0.000000000000e+00       9.669383720256e-12       1.303850340487e-12      -7.012318162410e-15 
  103       3.726711850670e-10       1.104433457153e-13      -3.378575755584e-12       0.000000000000e+00       9.425913763454e-12       1.278167769667e-12      -6.954315203986e-15 
  104       3.769485431308e-10       1.123623309431e-13      -3.467777258953e-12       0.000000000000e+00       9.189448545852e-12       1.253109208489e-12      -6.893957226922e-15 
  105       3.812498973298e-10       1.142539195325e-13      -3.556803955239e-12       0.000000000000e+00       8.959886031268e-12       1.228668515967e-12      -6.831280208424e-15 
  106       3.855750977515e-10       1.161163054826e-13      -3.645585273182e-12       0.000000000000e+00       8.737263678799e-12       1.204855005242e-12      -6.766516905650e-15 
  107       3.899238852055e-10       1.179476830965e-13      -3.734049878265e-12       0.000000000000e+00       8.521570349160e-12       1.181673329099e-12      -6.699913137887e-15 
