# dimensionless total [l(l+1)/2pi] C_l's
# for l=2 to 3000, i.e. number of multipoles equal to 2999
#
# -> if you prefer output in CAMB/HealPix/LensPix units/order, set 'format' to 'camb' in input file
# -> if you don't want to see such a header, set 'headers' to 'no' in input file
# -> for CMB lensing (phi), these are C_l^phi-phi for the lensing potential.
#    Remember the conversion factors:
#    C_l^dd (deflection) = l(l+1) C_l^phi-phi
#    C_l^gg (shear/convergence) = 1/4 (l(l+1))^2 C_l^phi-phi
#
# 1:l     2:TT                     3:EE                     4:TE                     5:BB                     6:phiphi                 7:TPhi                   8:Ephi               
    2       1.423304265839e-10       4.161443404031e-15       3.795168075513e-13       0.000000000000e+00       8.228597262834e-09       4.314227176512e-10      -1.840045790100e-12 
    3       1.347564395852e-10       5.343069126135e-15       4.238381371468e-13       0.000000000000e+00       5.062855534466e-09       3.069346173011e-10      -1.394934483565e-12 
    4       1.273952692130e-10       4.631328873708e-15       3.946207193647e-13       0.000000000000e+00       3.517830489818e-09       2.326861336656e-10      -9.149096136368e-13 
    5       1.217610807314e-10       3.096247132292e-15       3.343055210146e-13       0.000000000000e+00       2.624805113241e-09       1.838289502445e-10      -5.103205057098e-13 
    6       1.177927370517e-10       1.733660905962e-15       2.672851839887e-13       0.000000000000e+00       2.049923284574e-09       1.495288298974e-10      -2.117271271971e-13 
    7       1.151093346146e-10       9.355730044510e-16       2.077687610213e-13       0.000000000000e+00       1.653666844392e-09       1.243404167757e-10      -2.077430028244e-14 
    8       1.134311165463e-10       6.011279658145e-16       1.620295871177e-13       0.000000000000e+00       1.366746355641e-09       1.052391654505e-10       7.719054882385e-14 
    9       1.125077512745e-10       4.813069185443e-16       1.314373906989e-13       0.000000000000e+00       1.150909240271e-09       9.041660339758e-11       1.052080021016e-13 
   10       1.121127376757e-10       4.102347387776e-16       1.145459870631e-13       0.000000000000e+00       9.836259852553e-10       7.867213844102e-11       8.889669318277e-14 
   11       1.121814105717e-10       3.448818880152e-16       1.084383894458e-13       0.000000000000e+00       8.286137378171e-10       6.949813557036e-11       5.221557638808e-14 
   12       1.125654257501e-10       3.002662588560e-16       1.097584964906e-13       0.000000000000e+00       7.239006160807e-10       6.141400744439e-11       1.272303740039e-14 
   13       1.132117950871e-10       2.876283187610e-16       1.155182242861e-13       0.000000000000e+00       6.379508435485e-10       5.486507169426e-11      -1.755336883543e-14 
   14       1.140672937067e-10       2.993597685533e-16       1.234728184717e-13       0.000000000000e+00       5.664499134967e-10       4.914421483595e-11      -3.426912393181e-14 
   15       1.151211113273e-10       3.237056783401e-16       1.322237170164e-13       0.000000000000e+00       5.062717763413e-10       4.434571340935e-11      -3.749059817907e-14 
   16       1.163007694032e-10       3.579573168401e-16       1.410126591663e-13       0.000000000000e+00       4.551125424400e-10       4.021684728132e-11      -3.107690941494e-14 
   17       1.176258377054e-10       4.076134522032e-16       1.496260637449e-13       0.000000000000e+00       4.112318908920e-10       3.661698450285e-11      -2.016470861750e-14 
   18       1.190350472027e-10       4.781646841525e-16       1.583574274833e-13       0.000000000000e+00       3.731502104839e-10       3.347407575362e-11      -9.646432553153e-15 
   19       1.205393473143e-10       5.699887984573e-16       1.674403689249e-13       0.000000000000e+00       3.402627526729e-10       3.074530936951e-11      -2.158424920264e-15 
   20       1.221275508177e-10       6.811326267547e-16       1.770311168007e-13       0.000000000000e+00       3.113001823891e-10       2.832713693437e-11       5.404523747168e-16 
   21       1.238025291266e-10       8.109660148317e-16       1.871274983153e-13       0.000000000000e+00       2.858069132572e-10       2.617491591961e-11      -1.024286605546e-15 
   22       1.255399700827e-10       9.590032103460e-16       1.975923697480e-13       0.000000000000e+00       2.631726511034e-10       2.423115242803e-11      -5.144464695428e-15 
   23       1.273427168501e-10       1.125475557272e-15       2.080756252333e-13       0.000000000000e+00       2.430858268383e-10       2.248556015076e-11      -1.008711518205e-14 
   24       1.292009948348e-10       1.310641916333e-15       2.181178616467e-13       0.000000000000e+00       2.250816443280e-10       2.092150123506e-11      -1.399046712797e-14 
   25       1.311186003576e-10       1.514534018026e-15       2.274338129318e-13       0.000000000000e+00       2.089480115432e-10       1.952306279552e-11      -1.600151595816e-14 
   26       1.330867897627e-10       1.737346018781e-15       2.357926049035e-13       0.000000000000e+00       1.943925864744e-10       1.826003128385e-11      -1.575502453239e-14 
   27       1.350982112204e-10       1.981073074800e-15       2.430723557008e-13       0.000000000000e+00       1.812404908103e-10       1.711287499528e-11      -1.384770635735e-14 
   28       1.371373023554e-10       2.248261837182e-15       2.492163581083e-13       0.000000000000e+00       1.692647037653e-10       1.605853405493e-11      -1.126986971844e-14 
   29       1.392133229759e-10       2.540398426112e-15       2.542901684088e-13       0.000000000000e+00       1.584039354145e-10       1.509539870108e-11      -8.679656353161e-15 
   30       1.413320109244e-10       2.858636550120e-15       2.584372231457e-13       0.000000000000e+00       1.485414403097e-10       1.422032324478e-11      -6.750670711996e-15 
   31       1.434883804801e-10       3.204068021279e-15       2.618060488117e-13       0.000000000000e+00       1.394758786300e-10       1.342184613349e-11      -6.108283924844e-15 
   32       1.456851728560e-10       3.577616228378e-15       2.643538116371e-13       0.000000000000e+00       1.311603305111e-10       1.269137858415e-11      -6.584233736097e-15 
   33       1.479185834661e-10       3.980089388947e-15       2.659684134238e-13       0.000000000000e+00       1.235358828537e-10       1.201452576879e-11      -7.670118449930e-15 
   34       1.501778619919e-10       4.412243120723e-15       2.665200347313e-13       0.000000000000e+00       1.164957060068e-10       1.137381612281e-11      -8.795586238499e-15 
   35       1.524656409357e-10       4.874932176655e-15       2.658702307850e-13       0.000000000000e+00       1.100036941342e-10       1.077139147612e-11      -9.669690242987e-15 
   36       1.547829719895e-10       5.369002855572e-15       2.638633126493e-13       0.000000000000e+00       1.040076947196e-10       1.021354650284e-11      -1.005012963418e-14 
   37       1.571264357865e-10       5.895254606453e-15       2.603564079512e-13       0.000000000000e+00       9.842959073920e-11       9.703744008429e-12      -9.739091711916e-15 
   38       1.594996051115e-10       6.454459618093e-15       2.553360706843e-13       0.000000000000e+00       9.325493456746e-11       9.240016814099e-12      -8.886893346096e-15 
   39       1.619042003577e-10       7.047343232304e-15       2.488408134348e-13       0.000000000000e+00       8.846728002743e-11       8.816209985082e-12      -7.792327409989e-15 
   40       1.643362668356e-10       7.674574044958e-15       2.409316325496e-13       0.000000000000e+00       8.402091863454e-11       8.422273390187e-12      -6.827467731679e-15 
   41       1.667893322632e-10       8.336783050912e-15       2.316679917424e-13       0.000000000000e+00       7.985679610304e-11       8.047296525802e-12      -6.340191630251e-15 
   42       1.692665320891e-10       9.034637324668e-15       2.210231074478e-13       0.000000000000e+00       7.596262889073e-11       7.690557267666e-12      -6.312200906977e-15 
   43       1.717714394814e-10       9.768784198526e-15       2.089433704032e-13       0.000000000000e+00       7.232806176072e-11       7.353540464704e-12      -6.597644901799e-15 
   44       1.743043335351e-10       1.053982851197e-14       1.953709589616e-13       0.000000000000e+00       6.892662886498e-11       7.036816290809e-12      -7.013474391333e-15 
   45       1.768635951685e-10       1.134832376519e-14       1.802491440563e-13       0.000000000000e+00       6.572520180345e-11       6.740164495618e-12      -7.380365054854e-15 
   46       1.794511753076e-10       1.219474733637e-14       1.635410133437e-13       0.000000000000e+00       6.271872404087e-11       6.463189907002e-12      -7.665489961524e-15 
   47       1.820681963741e-10       1.307951431070e-14       1.452156821864e-13       0.000000000000e+00       5.990367932072e-11       6.204747685840e-12      -7.878523325682e-15 
   48       1.847131394595e-10       1.400298119070e-14       1.252430250991e-13       0.000000000000e+00       5.726761556794e-11       5.962680499433e-12      -8.032312959794e-15 
   49       1.873816116404e-10       1.496544342295e-14       1.035936141434e-13       0.000000000000e+00       5.478848047931e-11       5.733746311882e-12      -8.143072487080e-15 
   50       1.900686502323e-10       1.596713343984e-14       8.023827517807e-14       0.000000000000e+00       5.244125969205e-11       5.514546108562e-12      -8.229547639514e-15 
   51       1.927769127400e-10       1.700821989620e-14       5.514675753667e-14       0.000000000000e+00       5.022155693396e-11       5.304771467707e-12      -8.309802433927e-15 
   52       1.955103077670e-10       1.808880395026e-14       2.828859676058e-14       0.000000000000e+00       4.812726596573e-11       5.104713686658e-12      -8.403892891042e-15 
   53       1.982715417630e-10       1.920891633951e-14      -3.666125177496e-16       0.000000000000e+00       4.615151426751e-11       4.914316335806e-12      -8.534957225120e-15 
   54       2.010620057246e-10       2.036851493169e-14      -3.084929616328e-14       0.000000000000e+00       4.428234227998e-11       4.733150104683e-12      -8.729359778252e-15 
   55       2.038822593568e-10       2.156751985289e-14      -6.318522146739e-14       0.000000000000e+00       4.250634979957e-11       4.560628838907e-12      -9.007888162773e-15 
   56       2.067338839629e-10       2.280593470173e-14      -9.737991642043e-14       0.000000000000e+00       4.082143076286e-11       4.396778123399e-12      -9.356454116855e-15 
   57       2.096178913994e-10       2.408375115765e-14      -1.334305192575e-13       0.000000000000e+00       3.922664022159e-11       4.241613572698e-12      -9.748366224655e-15 
   58       2.125340788810e-10       2.540091307846e-14      -1.713300944897e-13       0.000000000000e+00       3.771834178628e-11       4.094900954568e-12      -1.015243881921e-14 
   59       2.154809389591e-10       2.675731551533e-14      -2.110675270908e-13       0.000000000000e+00       3.629004143173e-11       3.956140433138e-12      -1.053278734043e-14 
   60       2.184555694999e-10       2.815280372775e-14      -2.526274166828e-13       0.000000000000e+00       3.493222130258e-11       3.824550812050e-12      -1.084862369305e-14 
   61       2.214549719464e-10       2.958710792359e-14      -2.959926342675e-13       0.000000000000e+00       3.363498131638e-11       3.699286865016e-12      -1.106365861242e-14 
   62       2.244804902886e-10       3.105963259011e-14      -3.411529024212e-13       0.000000000000e+00       3.239703283312e-11       3.580183978917e-12      -1.117723791669e-14 
   63       2.275342132568e-10       3.256961791293e-14      -3.880979620127e-13       0.000000000000e+00       3.121843798356e-11       3.467153453685e-12      -1.119986378593e-14 
   64       2.306176288983e-10       3.411619691378e-14      -4.368150586945e-13       0.000000000000e+00       3.009790442990e-11       3.359955968350e-12      -1.114430266197e-14 
   65       2.337315786045e-10       3.569839242620e-14      -4.872889215691e-13       0.000000000000e+00       2.903270826072e-11       3.258193219874e-12      -1.102568542950e-14 
   66       2.368762111388e-10       3.731511407102e-14      -5.395017418559e-13       0.000000000000e+00       2.801861688574e-11       3.161299561977e-12      -1.086160759711e-14 
   67       2.400509366634e-10       3.896515523206e-14      -5.934331515581e-13       0.000000000000e+00       2.704981193072e-11       3.068533643975e-12      -1.067222947841e-14 
   68       2.432550166778e-10       4.064730893167e-14      -6.490613071900e-13       0.000000000000e+00       2.612044236229e-11       2.979168985167e-12      -1.047643193180e-14 
   69       2.464895754033e-10       4.236074948282e-14      -7.063664436421e-13       0.000000000000e+00       2.522982165640e-11       2.893129228735e-12      -1.027915511402e-14 
   70       2.497559152435e-10       4.410472309193e-14      -7.653280054074e-13       0.000000000000e+00       2.437815003651e-11       2.810467178064e-12      -1.008166240686e-14 
   71       2.530548877577e-10       4.587843581747e-14      -8.259236120397e-13       0.000000000000e+00       2.356494264351e-11       2.731174035569e-12      -9.885257176767e-15 
   72       2.563868639528e-10       4.768105358649e-14      -8.881290650832e-13       0.000000000000e+00       2.278899412435e-11       2.655176129398e-12      -9.691282074998e-15 
   73       2.597517045742e-10       4.951170221115e-14      -9.519183550012e-13       0.000000000000e+00       2.204834322081e-11       2.582331640124e-12      -9.501118337900e-15 
   74       2.631487303964e-10       5.136946740521e-14      -1.017263668105e-12       0.000000000000e+00       2.134023735819e-11       2.512427327445e-12      -9.316185087106e-15 
   75       2.665766925152e-10       5.325339480060e-14      -1.084135393485e-12       0.000000000000e+00       2.066109723398e-11       2.445175256880e-12      -9.137938629763e-15 
   76       2.700343677436e-10       5.516243556047e-14      -1.152501567481e-12       0.000000000000e+00       2.000740487107e-11       2.380288832177e-12      -8.967788515602e-15 
   77       2.735225358224e-10       5.709527173210e-14      -1.222326074833e-12       0.000000000000e+00       1.937863301344e-11       2.317734135075e-12      -8.806829582824e-15 
   78       2.770423104638e-10       5.905045892834e-14      -1.293570130570e-12       0.000000000000e+00       1.877478806654e-11       2.257518684567e-12      -8.656059551121e-15 
   79       2.805945296146e-10       6.102647682438e-14      -1.366192808830e-12       0.000000000000e+00       1.819551781452e-11       2.199614576793e-12      -8.516455562209e-15 
   80       2.841797385658e-10       6.302172805868e-14      -1.440151038261e-12       0.000000000000e+00       1.764009494533e-11       2.143956837964e-12      -8.388971773085e-15 
   81       2.877981730617e-10       6.503453713395e-14      -1.515399597411e-12       0.000000000000e+00       1.710740057577e-11       2.090441777283e-12      -8.274536949279e-15 
   82       2.914497424098e-10       6.706314931806e-14      -1.591891110129e-12       0.000000000000e+00       1.659590777664e-11       2.038925339875e-12      -8.174052058108e-15 
   83       2.951340125898e-10       6.910572954495e-14      -1.669576040956e-12       0.000000000000e+00       1.610366509779e-11       1.989221459709e-12      -8.088387861932e-15 
   84       2.988504860501e-10       7.116042850689e-14      -1.748403407157e-12       0.000000000000e+00       1.562877057009e-11       1.941148538887e-12      -8.017966711217e-15 
   85       3.025995313898e-10       7.322559592745e-14      -1.828323060512e-12       0.000000000000e+00       1.517092008538e-11       1.894681346582e-12      -7.961433537176e-15 
   86       3.063815775467e-10       7.529960079399e-14      -1.909283777114e-12       0.000000000000e+00       1.473008669268e-11       1.849821398980e-12      -7.916759100825e-15 
   87       3.101968190852e-10       7.738076733967e-14      -1.991232581696e-12       0.000000000000e+00       1.430604483357e-11       1.806550245971e-12      -7.881626947598e-15 
   88       3.140452042917e-10       7.946737507365e-14      -2.074114755077e-12       0.000000000000e+00       1.389836211058e-11       1.764828632929e-12      -7.853424012360e-15 
   89       3.179264232707e-10       8.155765881135e-14      -2.157873841595e-12       0.000000000000e+00       1.350639105563e-11       1.724595662475e-12      -7.829231224423e-15 
   90       3.218398960405e-10       8.364980870455e-14      -2.242451656550e-12       0.000000000000e+00       1.312926089841e-11       1.685767956256e-12      -7.805814112561e-15 
   91       3.257847606289e-10       8.574197027171e-14      -2.327788293645e-12       0.000000000000e+00       1.276586933477e-11       1.648238816708e-12      -7.779613410029e-15 
   92       3.297598611690e-10       8.783224442805e-14      -2.413822132421e-12       0.000000000000e+00       1.241487429511e-11       1.611877388837e-12      -7.746735659573e-15 
   93       3.337640948820e-10       8.991871645381e-14      -2.500490614563e-12       0.000000000000e+00       1.207501221146e-11       1.576560806343e-12      -7.703846713432e-15 
   94       3.377975385778e-10       9.199954781690e-14      -2.587732690187e-12       0.000000000000e+00       1.174612545346e-11       1.542277981207e-12      -7.651026360052e-15 
   95       3.418604703587e-10       9.407289828042e-14      -2.675486754941e-12       0.000000000000e+00       1.142827491842e-11       1.509039946904e-12      -7.589327660771e-15 
   96       3.459530189445e-10       9.613689861695e-14      -2.763689931678e-12       0.000000000000e+00       1.112142360174e-11       1.476847884623e-12      -7.519915268242e-15 
   97       3.500751566945e-10       9.818965103596e-14      -2.852278088452e-12       0.000000000000e+00       1.082543284710e-11       1.445692737811e-12      -7.444068425342e-15 
   98       3.542266926298e-10       1.002292296112e-13      -2.941185856511e-12       0.000000000000e+00       1.054005859671e-11       1.415554826717e-12      -7.363183964081e-15 
   99       3.584072654551e-10       1.022536807083e-13      -3.030346648291e-12       0.000000000000e+00       1.026494764140e-11       1.386403462932e-12      -7.278779304503e-15 
  100       3.626163365813e-10       1.042610234119e-13      -3.119692675408e-12       0.000000000000e+00       9.999633870920e-12       1.358196563932e-12      -7.192495453597e-15 
  101       3.668531831477e-10       1.062492499533e-13      -3.209154966655e-12       0.000000000000e+00       9.743534524061e-12       1.330880267620e-12      -7.106100004207e-15 
  102       3.711168910436e-10       1.082163261378e-13      -3.298663385993e-12       0.000000000000e+00       9.495946438883e-12       1.304388546869e-12      -7.021490133931e-15 
  103       3.754063479310e-10       1.101601917723e-13      -3.388146650548e-12       0.000000000000e+00       9.256042302899e-12       1.278642824064e-12      -6.940695604034e-15 
  104       3.797204744131e-10       1.120788119731e-13      -3.477532923838e-12       0.000000000000e+00       9.023058116411e-12       1.253570443052e-12      -6.865442238907e-15 
  105       3.840589681327e-10       1.139703380635e-13      -3.566751647995e-12       0.000000000000e+00       8.796892499547e-12       1.229163757045e-12      -6.795768748249e-15 
  106       3.884216476500e-10       1.158329693095e-13      -3.655731993746e-12       0.000000000000e+00       8.577581729042e-12       1.205428341186e-12      -6.731227778717e-15 
  107       3.928082189638e-10       1.176649049542e-13      -3.744402331304e-12       0.000000000000e+00       8.365114125817e-12       1.182364671832e-12      -6.671306939291e-15 
