# dimensionless total lensed [l(l+1)/2pi] C_l's
# for l=2 to 2500, i.e. number of multipoles equal to 2499
#
# -> if you prefer output in CAMB/HealPix/LensPix units/order, set 'format' to 'camb' in input file
# -> if you don't want to see such a header, set 'headers' to 'no' in input file
# -> for CMB lensing (phi), these are C_l^phi-phi for the lensing potential.
#    Remember the conversion factors:
#    C_l^dd (deflection) = l(l+1) C_l^phi-phi
#    C_l^gg (shear/convergence) = 1/4 (l(l+1))^2 C_l^phi-phi
#
# 1:l     2:TT                     3:EE                     4:TE                     5:BB                     6:phiphi                 7:TPhi                   8:Ephi               
    2       1.417546008384e-10       4.120181695834e-15       3.780615578118e-13       2.294470532617e-19       8.158823036718e-09       4.282035586053e-10      -1.833376261722e-12 
    3       1.343146797166e-10       5.299217507020e-15       4.224297152972e-13       4.589887956474e-19       5.077407821118e-09       3.052155242451e-10      -1.390036569887e-12 
    4       1.270500747888e-10       4.600345326649e-15       3.933169062648e-13       7.651898375613e-19       3.537966574016e-09       2.314749286864e-10      -9.127008295231e-13 
    5       1.215042072747e-10       3.081463243225e-15       3.333184357692e-13       1.148171174308e-18       2.641764613512e-09       1.828971724516e-10      -5.101891703732e-13 
    6       1.175762505481e-10       1.728963652245e-15       2.666308240929e-13       1.608079654936e-18       2.062160822908e-09       1.487363739641e-10      -2.127199536689e-13 
    7       1.149279894175e-10       9.346793421728e-16       2.074018864459e-13       2.145085250477e-18       1.662146254440e-09       1.236675322294e-10      -2.214668776204e-14 
    8       1.132976570363e-10       6.012610774725e-16       1.618455745868e-13       2.759377964874e-18       1.373338358233e-09       1.047156852073e-10       7.596537391464e-14 
    9       1.123843477103e-10       4.824039725511e-16       1.313828237138e-13       3.451164480342e-18       1.156894912360e-09       9.000828128356e-11       1.044217170389e-13 
   10       1.120140399149e-10       4.128320190532e-16       1.145789748302e-13       4.220664635370e-18       9.893687578966e-10       7.832105385224e-11       8.862061739414e-14 
   11       1.120806476003e-10       3.490231687038e-16       1.084851869135e-13       5.068107836540e-18       8.320263450913e-10       6.919749295473e-11       5.239118889788e-14 
   12       1.124938834683e-10       3.056619127639e-16       1.097802258015e-13       5.993729504825e-18       7.269398808030e-10       6.115814772856e-11       1.304686827192e-14 
   13       1.131353885517e-10       2.941563399250e-16       1.155339651803e-13       6.997767652984e-18       6.406697227305e-10       5.459420782063e-11      -1.733517715339e-14 
   14       1.140104320773e-10       3.071687062613e-16       1.235431034912e-13       8.080459683378e-18       5.689046893167e-10       4.902061712572e-11      -3.401038718665e-14 
   15       1.150618308938e-10       3.330208123780e-16       1.323199913340e-13       9.242039485209e-18       5.085028805241e-10       4.412540043117e-11      -3.750958386429e-14 
   16       1.162386970856e-10       3.688954249761e-16       1.411364852377e-13       1.048273489728e-17       4.571491213736e-10       3.998209265544e-11      -3.131114150684e-14 
   17       1.175496252477e-10       4.200400065868e-16       1.498511621040e-13       1.180276558741e-17       4.130988874798e-10       3.644232330478e-11      -2.049273607212e-14 
   18       1.189680630270e-10       4.920409469751e-16       1.586240762277e-13       1.320234120178e-17       3.748678141349e-10       3.332755462081e-11      -9.938568083164e-15 
   19       1.204950887179e-10       5.854660203234e-16       1.677044755250e-13       1.468166107144e-17       3.418511376129e-10       3.058558519987e-11      -2.331000799209e-15 
   20       1.220889684711e-10       6.985155952268e-16       1.773299385960e-13       1.624091146688e-17       3.127737031943e-10       2.813481744126e-11       4.788161153157e-16 
   21       1.237584930831e-10       8.303497145881e-16       1.874724195729e-13       1.788026812612e-17       2.871783159846e-10       2.597519944897e-11      -1.028823737159e-15 
   22       1.254965751814e-10       9.801940415522e-16       1.979407459053e-13       1.959989324208e-17       2.644527418884e-10       2.409022874095e-11      -5.167682847709e-15 
   23       1.273027336147e-10       1.148473112800e-15       2.084180177023e-13       2.139993940320e-17       2.442842321026e-10       2.241520634620e-11      -1.017185778335e-14 
   24       1.291577080608e-10       1.335786853071e-15       2.184967005902e-13       2.328054652862e-17       2.262060240344e-10       2.085741650782e-11      -1.412355127637e-14 
   25       1.310655007422e-10       1.542192303846e-15       2.278510794803e-13       2.524184746080e-17       2.100051334005e-10       1.943496747737e-11      -1.613532343610e-14 
   26       1.330217606277e-10       1.767786680051e-15       2.361953526816e-13       2.728396427238e-17       1.953880611713e-10       1.818073129724e-11      -1.582775046167e-14 
   27       1.350259433771e-10       2.014437602780e-15       2.434689785134e-13       2.940701361984e-17       1.821795493837e-10       1.706094993110e-11      -1.386146834247e-14 
   28       1.370686865712e-10       2.284557031803e-15       2.496994333655e-13       3.161110421806e-17       1.701520418645e-10       1.601680446219e-11      -1.130438279568e-14 
   29       1.391545998085e-10       2.579604108967e-15       2.549146209445e-13       3.389634548354e-17       1.592440282826e-10       1.504667526986e-11      -8.786403287034e-15 
   30       1.412796858470e-10       2.900743259007e-15       2.591668877947e-13       3.626284035604e-17       1.493381582777e-10       1.416080554145e-11      -6.907214520571e-15 
   31       1.434295514745e-10       3.249089882512e-15       2.625216789811e-13       3.871068525443e-17       1.402321412478e-10       1.336155338668e-11      -6.222060466777e-15 
   32       1.456087151369e-10       3.625617832475e-15       2.649795325186e-13       4.123998084361e-17       1.318790022746e-10       1.264123625164e-11      -6.584391822489e-15 
   33       1.478196584419e-10       4.031206005641e-15       2.665259440965e-13       4.385082512480e-17       1.242198217840e-10       1.198178877619e-11      -7.545357648188e-15 
   34       1.500582170369e-10       4.466682888170e-15       2.671239227640e-13       4.654331210081e-17       1.171475340215e-10       1.136114389227e-11      -8.595137751744e-15 
   35       1.523285362832e-10       4.932923632517e-15       2.666178903303e-13       4.931753689758e-17       1.106258302139e-10       1.077697494066e-11      -9.450999800247e-15 
   36       1.546316454985e-10       5.430778260522e-15       2.647928506879e-13       5.217359257070e-17       1.046021714620e-10       1.023042559002e-11      -9.861337243613e-15 
   37       1.569640914768e-10       5.961040234060e-15       2.614443421303e-13       5.511156822446e-17       9.899794612612e-11       9.720466070275e-12      -9.615634972294e-15 
   38       1.593298171679e-10       6.524441373741e-15       2.565406744883e-13       5.813154678570e-17       9.379868483498e-11       9.247074955118e-12      -8.849425768979e-15 
   39       1.617310296850e-10       7.121647714465e-15       2.501142870260e-13       6.123360663019e-17       8.898797722260e-11       8.808657251866e-12      -7.843293361589e-15 
   40       1.641642639853e-10       7.753255129308e-15       2.422200913619e-13       6.441782225626e-17       8.452003925990e-11       8.400887779894e-12      -6.946991381079e-15 
   41       1.666228944041e-10       8.419830466887e-15       2.329166677842e-13       6.768426130744e-17       8.033566970081e-11       8.018249424125e-12      -6.489093510495e-15 
   42       1.691070745282e-10       9.122061833020e-15       2.221991585415e-13       7.103297433199e-17       7.642252715658e-11       7.659822719422e-12      -6.459808383818e-15 
   43       1.716160374685e-10       9.860649694455e-15       2.100468632131e-13       7.446400178961e-17       7.277016182982e-11       7.324980073371e-12      -6.732445538164e-15 
   44       1.741449007823e-10       1.063626416922e-14       1.964415424502e-13       7.797737665371e-17       6.935192389778e-11       7.011658055627e-12      -7.147325295888e-15 
   45       1.766877791684e-10       1.144952589152e-14       1.813599043227e-13       8.157312063851e-17       6.613447408387e-11       6.717108639192e-12      -7.545944181777e-15 
   46       1.792491236300e-10       1.230094496635e-14       1.647484001494e-13       8.525123189346e-17       6.311274431682e-11       6.440694263811e-12      -7.890477592808e-15 
   47       1.818351288327e-10       1.319096146800e-14       1.465408824622e-13       8.901169337140e-17       6.028323568771e-11       6.181730948083e-12      -8.176519895775e-15 
   48       1.844503638316e-10       1.411995932782e-14       1.266650304349e-13       9.285447577905e-17       5.763347585562e-11       5.938629119627e-12      -8.400009129906e-15 
   49       1.870975948545e-10       1.508826395977e-14       1.050419109858e-13       9.677953721647e-17       5.514135167184e-11       5.708827495182e-12      -8.557264523636e-15 
   50       1.897779403675e-10       1.609611805859e-14       8.160140527997e-14       1.007868228838e-16       5.278177057648e-11       5.489569449879e-12      -8.649476624897e-15 
   51       1.924917970299e-10       1.714360675836e-14       5.633444296075e-14       1.048762649437e-16       5.055032474698e-11       5.280633961416e-12      -8.697527494768e-15 
   52       1.952378587508e-10       1.823070805478e-14       2.925418764845e-14       1.090477819987e-16       4.844489671529e-11       5.082231657503e-12      -8.731258137904e-15 
   53       1.980126486296e-10       1.935730953607e-14       3.817111513006e-16       1.133012786714e-16       4.645857716071e-11       4.894201270136e-12      -8.785608672893e-15 
   54       2.008103573770e-10       2.052320498144e-14      -3.025369882515e-14       1.176366452475e-16       4.457934241758e-11       4.715983162249e-12      -8.900865383775e-15 
   55       2.036251532363e-10       2.172817446253e-14      -6.262499093611e-14       1.220537658397e-16       4.279372097335e-11       4.546837535059e-12      -9.110800885265e-15 
   56       2.064591538862e-10       2.297225574300e-14      -9.674245256301e-14       1.265525460734e-16       4.109959838107e-11       4.386623176662e-12      -9.403078512053e-15 
   57       2.093161519115e-10       2.425553434224e-14      -1.326267886520e-13       1.311328916527e-16       3.949602849139e-11       4.235165801155e-12      -9.749444259920e-15 
   58       2.121992529463e-10       2.557806579436e-14      -1.702992348386e-13       1.357947004172e-16       3.797935972253e-11       4.092013745895e-12      -1.011675211072e-14 
   59       2.151108103872e-10       2.693987549996e-14      -2.097816689578e-13       1.405378623162e-16       3.654306798319e-11       3.956421031168e-12      -1.046673938703e-14 
   60       2.180523601065e-10       2.834095857790e-14      -2.510967225542e-13       1.453622593839e-16       3.517758959535e-11       3.827330419844e-12      -1.075580210682e-14 
   61       2.210249055699e-10       2.978118018299e-14      -2.942619765668e-13       1.502677812766e-16       3.387297670982e-11       3.703660023947e-12      -1.094516649953e-14 
   62       2.240299956729e-10       3.125995064830e-14      -3.392707736705e-13       1.552543760201e-16       3.262793803292e-11       3.585276623895e-12      -1.103457970693e-14 
   63       2.270687740845e-10       3.277647683017e-14      -3.861072773350e-13       1.603220106595e-16       3.144254014185e-11       3.472211754537e-12      -1.103581710014e-14 
   64       2.301415970952e-10       3.432985196702e-14      -4.347519329176e-13       1.654706571616e-16       3.031548807409e-11       3.364370272375e-12      -1.096305655760e-14 
   65       2.332479794481e-10       3.591905237291e-14      -4.851813914687e-13       1.707002928823e-16       2.924404780581e-11       3.261523046536e-12      -1.083298368206e-14 
   66       2.363865401701e-10       3.754293413123e-14      -5.373684335371e-13       1.760109010358e-16       2.822396873031e-11       3.163299649752e-12      -1.066489701762e-14 
   67       2.395549484029e-10       3.920022978831e-14      -5.912818929759e-13       1.814024711629e-16       2.724940613638e-11       3.069181049329e-12      -1.048081326664e-14 
   68       2.427508915867e-10       4.088967496872e-14      -6.468897937287e-13       1.868750075284e-16       2.631448204505e-11       2.978644912253e-12      -1.030107309753e-14 
   69       2.459753289009e-10       4.261042540379e-14      -7.041696685764e-13       1.924285552436e-16       2.541850825895e-11       2.891652047758e-12      -1.012988944933e-14 
   70       2.492298027740e-10       4.436171885260e-14      -7.631002039677e-13       1.980631803027e-16       2.456168723974e-11       2.808245853455e-12      -9.967046495152e-15 
   71       2.525154473401e-10       4.614275267305e-14      -8.236582179066e-13       2.037789627815e-16       2.374353240886e-11       2.728405077494e-12      -9.812130276596e-15 
   72       2.558329604177e-10       4.795268383825e-14      -8.858186659318e-13       2.095759975087e-16       2.296283252772e-11       2.652040412717e-12      -9.664518846392e-15 
   73       2.591825754873e-10       4.979062895302e-14      -9.495546470950e-13       2.154543947368e-16       2.221761607779e-11       2.578991090806e-12      -9.523372410963e-15 
   74       2.625640336704e-10       5.165566427027e-14      -1.014837409940e-12       2.214142808137e-16       2.150511564082e-11       2.509021476431e-12      -9.387623473023e-15 
   75       2.659765557070e-10       5.354682570745e-14      -1.081636358481e-12       2.274557988539e-16       2.082173227894e-11       2.441817661401e-12      -9.255966974170e-15 
   76       2.694193295893e-10       5.546305549691e-14      -1.149918761768e-12       2.335791018976e-16       2.016392879415e-11       2.377066597388e-12      -9.127194621593e-15 
   77       2.728931380623e-10       5.740303086916e-14      -1.219648808207e-12       2.397843294638e-16       1.953117629995e-11       2.314717682335e-12      -9.001290042852e-15 
   78       2.763989783746e-10       5.936530401385e-14      -1.290788388854e-12       2.460716279214e-16       1.892348275357e-11       2.254762909472e-12      -8.878516356772e-15 
   79       2.799375557869e-10       6.134835161402e-14      -1.363297378430e-12       2.524411581306e-16       1.834049544025e-11       2.197156874918e-12      -8.759086951754e-15 
   80       2.835092661242e-10       6.335057376814e-14      -1.437133635224e-12       2.588930959606e-16       1.778148440085e-11       2.141815064356e-12      -8.643162686137e-15 
   81       2.871141783277e-10       6.537029291229e-14      -1.512253000992e-12       2.654276328062e-16       1.724532585937e-11       2.088612139694e-12      -8.530849088565e-15 
   82       2.907520170075e-10       6.740575274225e-14      -1.588609300859e-12       2.720449761056e-16       1.673048565056e-11       2.037380225744e-12      -8.422193558351e-15 
   83       2.944221449943e-10       6.945511713564e-14      -1.666154343218e-12       2.787453498573e-16       1.623500264749e-11       1.987907196887e-12      -8.317182565840e-15 
   84       2.981238911951e-10       7.151653548385e-14      -1.744838305377e-12       2.855289917858e-16       1.575696535094e-11       1.939989733234e-12      -8.215816913903e-15 
   85       3.018576348281e-10       7.358835349331e-14      -1.824610964164e-12       2.923961431649e-16       1.529606873808e-11       1.893606348047e-12      -8.118357990458e-15 
   86       3.056238697769e-10       7.566893551685e-14      -1.905420670097e-12       2.993470582477e-16       1.485228632160e-11       1.848770036665e-12      -8.025117396212e-15 
   87       3.094228637956e-10       7.775660128870e-14      -1.987213986066e-12       3.063820079226e-16       1.442539177338e-11       1.805475276218e-12      -7.936381047458e-15 
   88       3.132546468646e-10       7.984962596269e-14      -2.069935693719e-12       3.135012801738e-16       1.401495064048e-11       1.763697232797e-12      -7.852407688388e-15 
   89       3.171189995459e-10       8.194624015057e-14      -2.153528799842e-12       3.207051805427e-16       1.362031206116e-11       1.723390968619e-12      -7.773427403411e-15 
   90       3.210154413388e-10       8.404462996021e-14      -2.237934542748e-12       3.279940325886e-16       1.324060048091e-11       1.684490649192e-12      -7.699640129467e-15 
   91       3.249432190355e-10       8.614293703386e-14      -2.323092398654e-12       3.353681783494e-16       1.287470736841e-11       1.646908750480e-12      -7.631214168348e-15 
   92       3.289012950770e-10       8.823925858642e-14      -2.408940088073e-12       3.428279788027e-16       1.252128293158e-11       1.610535266069e-12      -7.568284699013e-15 
   93       3.328886669635e-10       9.033167664197e-14      -2.495414435577e-12       3.503738223486e-16       1.217905633886e-11       1.575264752580e-12      -7.510846048929e-15 
   94       3.369054057327e-10       9.241835069028e-14      -2.582454083168e-12       3.580061507161e-16       1.184786946814e-11       1.541083840957e-12      -7.458413205458e-15 
   95       3.409517528666e-10       9.449743910145e-14      -2.669997198703e-12       3.657254378234e-16       1.152778404093e-11       1.507995482250e-12      -7.410306408303e-15 
   96       3.450277961474e-10       9.656707160239e-14      -2.757980676725e-12       3.735321826662e-16       1.121876324617e-11       1.475991876907e-12      -7.365749947854e-15 
   97       3.491334625574e-10       9.862534971595e-14      -2.846340156557e-12       3.814269098893e-16       1.092066796563e-11       1.445054064067e-12      -7.323869219156e-15 
   98       3.532685111795e-10       1.006703471999e-13      -2.935010040403e-12       3.894101703569e-16       1.063325299919e-11       1.415151510857e-12      -7.283687775871e-15 
   99       3.574325260964e-10       1.027001104861e-13      -3.023923511447e-12       3.974825417242e-16       1.035616329024e-11       1.386241701690e-12      -7.244124384246e-15 
  100       3.616249092911e-10       1.047126591194e-13      -3.113012551948e-12       4.056446290080e-16       1.008893015102e-11       1.358269727559e-12      -7.203990077071e-15 
  101       3.658448735466e-10       1.067059861967e-13      -3.202207961340e-12       4.138970651581e-16       9.830967487948e-12       1.331167875335e-12      -7.161985207650e-15 
  102       3.700914353458e-10       1.086780588063e-13      -3.291439374330e-12       4.222405116280e-16       9.581568026969e-12       1.304855217065e-12      -7.116696503758e-15 
  103       3.743634077718e-10       1.106268184665e-13      -3.380635278994e-12       4.306756589460e-16       9.339899538916e-12       1.279237199263e-12      -7.066594121615e-15 
  104       3.786596475874e-10       1.125502326050e-13      -3.469723659579e-12       4.392032067206e-16       9.105193495912e-12       1.254227800274e-12      -7.010403942932e-15 
  105       3.829798497816e-10       1.144464559714e-13      -3.558633984813e-12       4.478237993504e-16       8.877348194673e-12       1.229820295748e-12      -6.948288087873e-15 
  106       3.873238476177e-10       1.163136919489e-13      -3.647295523174e-12       4.565380826533e-16       8.656400448622e-12       1.206025331379e-12      -6.880819122318e-15 
  107       3.916913637835e-10       1.181501444494e-13      -3.735636766838e-12       4.653467239983e-16       8.442338792266e-12       1.182849047748e-12      -6.808620218532e-15 
