# dimensionless total [l(l+1)/2pi] C_l's
# for l=2 to 3000, i.e. number of multipoles equal to 2999
#
# -> if you prefer output in CAMB/HealPix/LensPix units/order, set 'format' to 'camb' in input file
# -> if you don't want to see such a header, set 'headers' to 'no' in input file
# -> for CMB lensing (phi), these are C_l^phi-phi for the lensing potential.
#    Remember the conversion factors:
#    C_l^dd (deflection) = l(l+1) C_l^phi-phi
#    C_l^gg (shear/convergence) = 1/4 (l(l+1))^2 C_l^phi-phi
#
# 1:l     2:TT                     3:EE                     4:TE                     5:BB                     6:phiphi                 7:TPhi                   8:Ephi               
    2       1.423589049279e-10       4.161447010450e-15       3.795138319357e-13       0.000000000000e+00       8.232814246786e-09       4.318220105262e-10      -1.840047492126e-12 
    3       1.347936969393e-10       5.343073530285e-15       4.238352137177e-13       0.000000000000e+00       5.065806054649e-09       3.073262820162e-10      -1.394934186670e-12 
    4       1.274389610270e-10       4.631332354093e-15       3.946183604058e-13       0.000000000000e+00       3.520069757375e-09       2.330666221767e-10      -9.149072934177e-13 
    5       1.218095188041e-10       3.096249052168e-15       3.343038723745e-13       0.000000000000e+00       2.626589813720e-09       1.841977907657e-10      -5.103162876988e-13 
    6       1.178446086336e-10       1.733661822320e-15       2.672842092032e-13       0.000000000000e+00       2.051392212515e-09       1.498861060897e-10      -2.117211411800e-13 
    7       1.151635590754e-10       9.355736616228e-16       2.077683048297e-13       0.000000000000e+00       1.654904501528e-09       1.246864786148e-10      -2.076671115412e-14 
    8       1.134867080245e-10       6.011288134333e-16       1.620293416130e-13       0.000000000000e+00       1.367807386113e-09       1.055743532491e-10       7.719959045439e-14 
    9       1.125639263359e-10       4.813081497419e-16       1.314371104465e-13       0.000000000000e+00       1.151830799088e-09       9.074117618274e-11       1.052183878506e-13 
   10       1.121689024794e-10       4.102363980081e-16       1.145454652938e-13       0.000000000000e+00       9.844346218721e-10       7.898639734835e-11       8.890834237716e-14 
   11       1.122370538060e-10       3.448841259880e-16       1.084374738336e-13       0.000000000000e+00       8.293007096621e-10       6.980030961733e-11       5.222833984638e-14 
   12       1.126201926010e-10       3.002694255850e-16       1.097574718014e-13       0.000000000000e+00       7.245124895743e-10       6.170689891219e-11       1.273691816461e-14 
   13       1.132654772478e-10       2.876323198167e-16       1.155177452191e-13       0.000000000000e+00       6.384989911342e-10       5.514901810422e-11      -1.753847744830e-14 
   14       1.141198714035e-10       2.993634046351e-16       1.234731730629e-13       0.000000000000e+00       5.669436525242e-10       4.941948767005e-11      -3.425327391011e-14 
   15       1.151726729032e-10       3.237078004509e-16       1.322245430957e-13       0.000000000000e+00       5.067186764365e-10       4.461262868585e-11      -3.747388404205e-14 
   16       1.163513326130e-10       3.579577030598e-16       1.410138496361e-13       0.000000000000e+00       4.555185811724e-10       4.047584487996e-11      -3.105941061664e-14 
   17       1.176754082930e-10       4.076119979777e-16       1.496274034696e-13       0.000000000000e+00       4.116022458762e-10       3.686837926433e-11      -2.014633638045e-14 
   18       1.190836180026e-10       4.781625997828e-16       1.583582439175e-13       0.000000000000e+00       3.734889500994e-10       3.371802828042e-11      -9.627229367989e-15 
   19       1.205869137840e-10       5.699878015656e-16       1.674401415272e-13       0.000000000000e+00       3.405736173806e-10       3.098212844529e-11      -2.138458281616e-15 
   20       1.221740702476e-10       6.811343476265e-16       1.770297014459e-13       0.000000000000e+00       3.115861369754e-10       2.855716244835e-11       5.611585192775e-16 
   21       1.238478696456e-10       8.109713295584e-16       1.871246728853e-13       0.000000000000e+00       2.860706728684e-10       2.639845349446e-11      -1.002841374079e-15 
   22       1.255838966493e-10       9.590120986625e-16       1.975877337698e-13       0.000000000000e+00       2.634165005287e-10       2.444835387243e-11      -5.122276799730e-15 
   23       1.273850868268e-10       1.125488467551e-15       2.080690070413e-13       0.000000000000e+00       2.433118051886e-10       2.269666072317e-11      -1.006424124980e-14 
   24       1.292418064992e-10       1.310660277297e-15       2.181095200861e-13       0.000000000000e+00       2.252913991238e-10       2.112680447646e-11      -1.396703233504e-14 
   25       1.311578616482e-10       1.514559892875e-15       2.274244867378e-13       0.000000000000e+00       2.091430588706e-10       1.972281778924e-11      -1.597758965669e-14 
   26       1.331244794442e-10       1.737381637818e-15       2.357835440919e-13       0.000000000000e+00       1.945742548665e-10       1.845435701200e-11      -1.573058467175e-14 
   27       1.351343663915e-10       1.981118956046e-15       2.430651290936e-13       0.000000000000e+00       1.814099836576e-10       1.730195133598e-11      -1.382272238064e-14 
   28       1.371720413248e-10       2.248316095579e-15       2.492126753699e-13       0.000000000000e+00       1.694230400544e-10       1.624261925662e-11      -1.124433859759e-14 
   29       1.392468160270e-10       2.540457777805e-15       2.542913150417e-13       0.000000000000e+00       1.585520878570e-10       1.527476832172e-11      -8.653631194275e-15 
   30       1.413644658264e-10       2.858696495035e-15       2.584437348845e-13       0.000000000000e+00       1.486802823403e-10       1.439519969228e-11      -6.724283399869e-15 
   31       1.435200285078e-10       3.204123047304e-15       2.618176551254e-13       0.000000000000e+00       1.396061100183e-10       1.359235880555e-11      -6.081737784548e-15 
   32       1.457162366205e-10       3.577661300804e-15       2.643699968960e-13       0.000000000000e+00       1.312826235771e-10       1.285765503775e-11      -6.557697591999e-15 
   33       1.479492529750e-10       3.980120679720e-15       2.659885877045e-13       0.000000000000e+00       1.236508756128e-10       1.217669223807e-11      -7.643680780016e-15 
   34       1.502082813223e-10       4.412258154584e-15       2.665435538551e-13       0.000000000000e+00       1.166039568487e-10       1.153197710654e-11      -8.769246991881e-15 
   35       1.524959223475e-10       4.874928984918e-15       2.658964402641e-13       0.000000000000e+00       1.101057264929e-10       1.092566888416e-11      -9.643400591654e-15 
   36       1.548131898765e-10       5.368979797167e-15       2.638915801049e-13       0.000000000000e+00       1.041039741545e-10       1.036407516905e-11      -1.002379959801e-14 
   37       1.571566200217e-10       5.895210530228e-15       2.603860765859e-13       0.000000000000e+00       9.852050102100e-11       9.850656733871e-12      -9.712601815621e-15 
   38       1.595297611086e-10       6.454394279395e-15       2.553661547439e-13       0.000000000000e+00       9.334084771691e-11       9.383455709296e-12      -8.860164201750e-15 
   39       1.619343100076e-10       7.047257556081e-15       2.488698636599e-13       0.000000000000e+00       8.854855811521e-11       8.956316784248e-12      -7.765351717572e-15 
   40       1.643662816539e-10       7.674470336232e-15       2.409576657776e-13       0.000000000000e+00       8.409788745053e-11       8.559170440826e-12      -6.800328315518e-15 
   41       1.668191717539e-10       8.336665069848e-15       2.316886517926e-13       0.000000000000e+00       7.992973238290e-11       8.181077020042e-12      -6.313049913656e-15 
   42       1.692961009939e-10       9.034509873506e-15       2.210366194081e-13       0.000000000000e+00       7.603179911531e-11       7.821311110300e-12      -6.285182252126e-15 
   43       1.718006314555e-10       9.768653058015e-15       2.089489534917e-13       0.000000000000e+00       7.239372225523e-11       7.481353099521e-12      -6.570795523834e-15 
   44       1.743330295407e-10       1.053970051338e-14       1.953690388403e-13       0.000000000000e+00       6.898901025108e-11       7.161756491504e-12      -6.986745230994e-15 
   45       1.768916659447e-10       1.134820627448e-14       1.802412872652e-13       0.000000000000e+00       6.578450248637e-11       6.862281113452e-12      -7.353614559041e-15 
   46       1.794784977652e-10       1.219464576119e-14       1.635288998491e-13       0.000000000000e+00       6.277513693206e-11       6.582541103196e-12      -7.638552492267e-15 
   47       1.820946600562e-10       1.307943099632e-14       1.452007733127e-13       0.000000000000e+00       5.995739316080e-11       6.321405643094e-12      -7.851229999018e-15 
   48       1.847386493199e-10       1.400291482264e-14       1.252264925349e-13       0.000000000000e+00       5.731880621601e-11       6.076726551589e-12      -8.004494579569e-15 
   49       1.874060909609e-10       1.496538839735e-14       1.035762646139e-13       0.000000000000e+00       5.483730155898e-11       5.845265621102e-12      -8.114562702295e-15 
   50       1.900920419776e-10       1.596708028001e-14       8.022055367545e-14       0.000000000000e+00       5.248783988907e-11       5.623624231781e-12      -8.200230991433e-15 
   51       1.927991754027e-10       1.700815921750e-14       5.512902141474e-14       0.000000000000e+00       5.026602086965e-11       5.411498245246e-12      -8.279810918510e-15 
   52       1.955314154668e-10       1.808872778397e-14       2.827118499641e-14       0.000000000000e+00       4.816973678201e-11       5.209181014054e-12      -8.373694705276e-15 
   53       1.982914859751e-10       1.920881848045e-14      -3.833869509350e-16       0.000000000000e+00       4.619210918361e-11       5.016613433427e-12      -8.505406640849e-15 
   54       2.010807970671e-10       2.036839130424e-14      -3.086515435642e-14       0.000000000000e+00       4.432116784917e-11       4.833358445070e-12      -8.701749341492e-15 
   55       2.038999260195e-10       2.156736850253e-14      -6.319993249865e-14       0.000000000000e+00       4.254350042899e-11       4.658820058509e-12      -8.983852435219e-15 
   56       2.067504589517e-10       2.280575451141e-14      -9.739332957919e-14       0.000000000000e+00       4.085699865940e-11       4.493022539838e-12      -9.337379528744e-15 
   57       2.096334082900e-10       2.408354155496e-14      -1.334425832727e-13       0.000000000000e+00       3.926071622481e-11       4.335980131622e-12      -9.735176197014e-15 
   58       2.125485706738e-10       2.540067411100e-14      -1.713408723581e-13       0.000000000000e+00       3.775101272921e-11       4.187453872597e-12      -1.014551544790e-14 
   59       2.154944368603e-10       2.675704792930e-14      -2.110772115499e-13       0.000000000000e+00       3.632138734055e-11       4.046935628151e-12      -1.053188953097e-14 
   60       2.184681016275e-10       2.815250904973e-14      -2.526363463286e-13       0.000000000000e+00       3.496231243515e-11       3.913632120792e-12      -1.085280174635e-14 
   61       2.214665637957e-10       2.958678834888e-14      -2.960012670780e-13       0.000000000000e+00       3.366387781898e-11       3.786686223402e-12      -1.107133674121e-14 
   62       2.244911710987e-10       3.105929023338e-14      -3.411616488644e-13       0.000000000000e+00       3.242479330314e-11       3.665935010902e-12      -1.118685263123e-14 
   63       2.275440176754e-10       3.256925455838e-14      -3.881071280530e-13       0.000000000000e+00       3.124512084840e-11       3.551294297576e-12      -1.121006545104e-14 
   64       2.306265969146e-10       3.411581394615e-14      -4.368248285447e-13       0.000000000000e+00       3.012356665145e-11       3.442528114735e-12      -1.115399843835e-14 
   65       2.337397554667e-10       3.569799075862e-14      -4.872993397156e-13       0.000000000000e+00       2.905740396676e-11       3.339240269360e-12      -1.103408410681e-14 
   66       2.368836472549e-10       3.731469406988e-14      -5.395126943564e-13       0.000000000000e+00       2.804239592853e-11       3.240865902742e-12      -1.086826631881e-14 
   67       2.400576874872e-10       3.896471663870e-14      -5.934443466120e-13       0.000000000000e+00       2.707271837249e-11       3.146663049125e-12      -1.067710235828e-14 
   68       2.432611416965e-10       4.064685091701e-14      -6.490722973181e-13       0.000000000000e+00       2.614251446292e-11       3.055903799232e-12      -1.047983449614e-14 
   69       2.464951342588e-10       4.236027113866e-14      -7.063767841051e-13       0.000000000000e+00       2.525109688386e-11       2.968511639406e-12      -1.028145218616e-14 
   70       2.497609661081e-10       4.410422356897e-14      -7.653373028116e-13       0.000000000000e+00       2.439866594589e-11       2.884538683091e-12      -1.008317965243e-14 
   71       2.530594865022e-10       4.587791433548e-14      -8.259315333991e-13       0.000000000000e+00       2.358473623891e-11       2.803974215796e-12      -9.886273452977e-15 
   72       2.563910632755e-10       4.768050944495e-14      -8.881353472369e-13       0.000000000000e+00       2.280810118812e-11       2.726741358711e-12      -9.692021470564e-15 
   73       2.597555530916e-10       4.951113480019e-14      -9.519228143866e-13       0.000000000000e+00       2.206679761010e-11       2.652693732340e-12      -9.501741903471e-15 
   74       2.631522716959e-10       5.136887621705e-14      -1.017266210887e-12       0.000000000000e+00       2.135807026879e-11       2.581612120123e-12      -9.316782256296e-15 
   75       2.665799641680e-10       5.325277944126e-14      -1.084136026040e-12       0.000000000000e+00       2.067833643158e-11       2.513201132062e-12      -9.138518330735e-15 
   76       2.700374012999e-10       5.516179573028e-14      -1.152500387021e-12       0.000000000000e+00       2.002407474595e-11       2.447167324869e-12      -8.968287916460e-15 
   77       2.735253600380e-10       5.709460710470e-14      -1.222323195478e-12       0.000000000000e+00       1.939475735141e-11       2.383477383900e-12      -8.807180134802e-15 
   78       2.770449518173e-10       5.904976911324e-14      -1.293565662789e-12       0.000000000000e+00       1.879039054200e-11       2.322141179160e-12      -8.656205668870e-15 
   79       2.805970118397e-10       6.102576135939e-14      -1.366186858005e-12       0.000000000000e+00       1.821062165622e-11       2.263132846408e-12      -8.516356345338e-15 
   80       2.841820821660e-10       6.302098640204e-14      -1.440143703180e-12       0.000000000000e+00       1.765472258712e-11       2.206389121114e-12      -8.388602786211e-15 
   81       2.878003948079e-10       6.503376865617e-14      -1.515390968714e-12       0.000000000000e+00       1.712157329219e-11       2.151807672417e-12      -8.273892060587e-15 
   82       2.914518548197e-10       6.706235329354e-14      -1.591881268684e-12       0.000000000000e+00       1.660964530335e-11       2.099245437082e-12      -8.173145336415e-15 
   83       2.951360233899e-10       6.910490514335e-14      -1.669565056187e-12       0.000000000000e+00       1.611698523696e-11       2.048516953458e-12      -8.087255532260e-15 
   84       2.988523987673e-10       7.115957481495e-14      -1.748391337059e-12       0.000000000000e+00       1.564168924689e-11       1.999441002008e-12      -8.016664213242e-15 
   85       3.026013495837e-10       7.322471206880e-14      -1.828309957224e-12       0.000000000000e+00       1.518345287701e-11       1.951993060242e-12      -7.960016831360e-15 
   86       3.063833059754e-10       7.529868596680e-14      -1.909269687753e-12       0.000000000000e+00       1.474224910240e-11       1.906175184486e-12      -7.915279210598e-15 
   87       3.101984637790e-10       7.737982082526e-14      -1.991217547489e-12       0.000000000000e+00       1.431785211298e-11       1.861969108864e-12      -7.880129200567e-15 
   88       3.140467726288e-10       7.946639624540e-14      -2.074098810465e-12       0.000000000000e+00       1.390982907462e-11       1.819335391124e-12      -7.851947256738e-15 
   89       3.179279240541e-10       8.155664714378e-14      -2.157857013306e-12       0.000000000000e+00       1.351753189030e-11       1.778212558478e-12      -7.827807020681e-15 
   90       3.218413395770e-10       8.364876378273e-14      -2.242433962644e-12       0.000000000000e+00       1.314008896116e-11       1.738516253431e-12      -7.804465900299e-15 
   91       3.257861588097e-10       8.574089180087e-14      -2.327769742525e-12       0.000000000000e+00       1.277639694769e-11       1.700138379613e-12      -7.778355650062e-15 
   92       3.297612275515e-10       8.783113224353e-14      -2.413802721825e-12       0.000000000000e+00       1.242511253077e-11       1.662946247614e-12      -7.745572951245e-15 
   93       3.337654440265e-10       8.991757049986e-14      -2.500470330158e-12       0.000000000000e+00       1.208497096555e-11       1.626815224956e-12      -7.702774871492e-15 
   94       3.377988830136e-10       9.199836802658e-14      -2.587711503013e-12       0.000000000000e+00       1.175581444300e-11       1.591734158503e-12      -7.650039761220e-15 
   95       3.418618195656e-10       9.407168453996e-14      -2.675464619781e-12       0.000000000000e+00       1.143770388077e-11       1.557714302094e-12      -7.588421222146e-15 
   96       3.459543790413e-10       9.613565075995e-14      -2.763666785737e-12       0.000000000000e+00       1.113060220880e-11       1.524756836190e-12      -7.519084527812e-15 
   97       3.500765301187e-10       9.818836883736e-14      -2.852253849998e-12       0.000000000000e+00       1.083437061618e-11       1.492852473604e-12      -7.443309624943e-15 
   98       3.542280778091e-10       1.002279127811e-13      -2.941160423483e-12       0.000000000000e+00       1.054876479817e-11       1.461981065246e-12      -7.362494134821e-15 
   99       3.584086564703e-10       1.022523288857e-13      -3.030319896875e-12       0.000000000000e+00       1.027343120314e-11       1.432111205858e-12      -7.278156354643e-15 
  100       3.626177228202e-10       1.042596361579e-13      -3.119664458578e-12       0.000000000000e+00       1.000790327947e-11       1.403199839756e-12      -7.191938258891e-15 
  101       3.668545489503e-10       1.062478267448e-13      -3.209125112678e-12       0.000000000000e+00       9.751597722533e-12       1.375191866564e-12      -7.105608500698e-15 
  102       3.711182153397e-10       1.082148663605e-13      -3.298631696898e-12       0.000000000000e+00       9.503810721629e-12       1.348019746956e-12      -7.021065413208e-15 
  103       3.754076038680e-10       1.101586947133e-13      -3.388112900567e-12       0.000000000000e+00       9.263714206942e-12       1.321603108394e-12      -6.940340010949e-15 
  104       3.797216306304e-10       1.120772768449e-13      -3.477496867923e-12       0.000000000000e+00       9.030543479676e-12       1.295867720943e-12      -6.865159160995e-15 
  105       3.840599952471e-10       1.139687641234e-13      -3.566713062199e-12       0.000000000000e+00       8.804197052190e-12       1.270806193257e-12      -6.795561427556e-15 
  106       3.884225202210e-10       1.158313558959e-13      -3.655690688005e-12       0.000000000000e+00       8.584711217979e-12       1.246424778891e-12      -6.731098973131e-15 
  107       3.928089158768e-10       1.176632514934e-13      -3.744358152559e-12       0.000000000000e+00       8.372074274263e-12       1.222724559177e-12      -6.671258881889e-15 
