# dimensionless total [l(l+1)/2pi] C_l's
# for l=2 to 3000, i.e. number of multipoles equal to 2999
#
# -> if you prefer output in CAMB/HealPix/LensPix units/order, set 'format' to 'camb' in input file
# -> if you don't want to see such a header, set 'headers' to 'no' in input file
# -> for CMB lensing (phi), these are C_l^phi-phi for the lensing potential.
#    Remember the conversion factors:
#    C_l^dd (deflection) = l(l+1) C_l^phi-phi
#    C_l^gg (shear/convergence) = 1/4 (l(l+1))^2 C_l^phi-phi
#
# 1:l     2:TT                     3:EE                     4:TE                     5:BB                     6:phiphi                 7:TPhi                   8:Ephi               
    2       1.402132929605e-10       4.140089591317e-15       3.815574076061e-13       0.000000000000e+00       8.296177068785e-09       4.177643894138e-10      -1.839450386082e-12 
    3       1.331359745968e-10       5.339125405748e-15       4.251707391434e-13       0.000000000000e+00       5.106742846774e-09       2.979954894444e-10      -1.397700820470e-12 
    4       1.261137645130e-10       4.653666454833e-15       3.957083547940e-13       0.000000000000e+00       3.547623421079e-09       2.261705558847e-10      -9.207587692240e-13 
    5       1.207217145323e-10       3.129776137333e-15       3.353762932239e-13       0.000000000000e+00       2.646282244695e-09       1.787689649734e-10      -5.175954165254e-13 
    6       1.169192239241e-10       1.760638522109e-15       2.683497533133e-13       0.000000000000e+00       2.066322762594e-09       1.455043969874e-10      -2.186890948069e-13 
    7       1.144110048688e-10       9.496423374919e-16       2.087176287362e-13       0.000000000000e+00       1.666612989044e-09       1.211030102476e-10      -2.616020614875e-14 
    8       1.128114764484e-10       6.063299985355e-16       1.627724574745e-13       0.000000000000e+00       1.377312902104e-09       1.025735137592e-10       7.400822542333e-14 
    9       1.119491092766e-10       4.840143019330e-16       1.319447445235e-13       0.000000000000e+00       1.159804572566e-09       8.813759656187e-11       1.042268892844e-13 
   10       1.116441592740e-10       4.134276443226e-16       1.147573042995e-13       0.000000000000e+00       9.912666021380e-10       7.666905979392e-11       8.962434197071e-14 
   11       1.117236335423e-10       3.480310795163e-16       1.083627166008e-13       0.000000000000e+00       8.343253695917e-10       6.767336741377e-11       5.379361104028e-14 
   12       1.121679072829e-10       3.021171785015e-16       1.095089660460e-13       0.000000000000e+00       7.288284143876e-10       5.995149803896e-11       1.455726015806e-14 
   13       1.128498436988e-10       2.880405923175e-16       1.151588039500e-13       0.000000000000e+00       6.422490682440e-10       5.347050388557e-11      -1.639397984171e-14 
   14       1.137105824617e-10       2.990211327258e-16       1.230406192260e-13       0.000000000000e+00       5.702243732905e-10       4.793657217236e-11      -3.389936445266e-14 
   15       1.147685369821e-10       3.230235786472e-16       1.317550131536e-13       0.000000000000e+00       5.096148142008e-10       4.326840528711e-11      -3.791138792424e-14 
   16       1.159758578209e-10       3.565839191289e-16       1.405263990266e-13       0.000000000000e+00       4.580948115502e-10       3.927833752143e-11      -3.200939483765e-14 
   17       1.172981790260e-10       4.048130193884e-16       1.491668779010e-13       0.000000000000e+00       4.139080305225e-10       3.577327181526e-11      -2.131767953670e-14 
   18       1.187258768007e-10       4.735705815047e-16       1.578432145134e-13       0.000000000000e+00       3.755618177202e-10       3.268744740544e-11      -1.066723656932e-14 
   19       1.202638196111e-10       5.636004506114e-16       1.668166329645e-13       0.000000000000e+00       3.424477438607e-10       2.998863422413e-11      -2.786818725282e-15 
   20       1.218644842260e-10       6.732223741672e-16       1.763375266776e-13       0.000000000000e+00       3.132877177808e-10       2.758111258480e-11       3.663089023481e-16 
   21       1.235385618254e-10       8.015779854491e-16       1.863885542298e-13       0.000000000000e+00       2.876225845079e-10       2.546161271910e-11      -8.169830136628e-16 
   22       1.252832438505e-10       9.477988637827e-16       1.967874830781e-13       0.000000000000e+00       2.648371744537e-10       2.361646457896e-11      -4.734764171803e-15 
   23       1.270968274611e-10       1.112166952316e-15       2.072153279548e-13       0.000000000000e+00       2.446171448039e-10       2.199304183496e-11      -9.638405395941e-15 
   24       1.289564712058e-10       1.295153564346e-15       2.172608540489e-13       0.000000000000e+00       2.264939429925e-10       2.050570877300e-11      -1.360865015551e-14 
   25       1.308618081514e-10       1.496950193265e-15       2.266112105211e-13       0.000000000000e+00       2.102540646917e-10       1.913058324125e-11      -1.579292633295e-14 
   26       1.328059990909e-10       1.717812176161e-15       2.349939803112e-13       0.000000000000e+00       1.956034401519e-10       1.785579480146e-11      -1.581685480975e-14 
   27       1.347982121135e-10       1.959334552574e-15       2.423306804992e-13       0.000000000000e+00       1.823661328875e-10       1.669905147055e-11      -1.414207905033e-14 
   28       1.368414930436e-10       2.223568491292e-15       2.486215080731e-13       0.000000000000e+00       1.703136311122e-10       1.567568060748e-11      -1.160172148006e-14 
   29       1.389389553400e-10       2.512068352673e-15       2.538884657889e-13       0.000000000000e+00       1.593839712891e-10       1.477111634246e-11      -8.884121509273e-15 
   30       1.410794718528e-10       2.826289265611e-15       2.581849979939e-13       0.000000000000e+00       1.494592126750e-10       1.394729303516e-11      -6.772294936580e-15 
   31       1.432414608573e-10       3.167632095843e-15       2.615787483618e-13       0.000000000000e+00       1.403362794563e-10       1.315994455748e-11      -6.006025392757e-15 
   32       1.454299247132e-10       3.537017540927e-15       2.640736945930e-13       0.000000000000e+00       1.319679944465e-10       1.241244493469e-11      -6.430240928617e-15 
   33       1.476506998451e-10       3.935138518541e-15       2.656601173547e-13       0.000000000000e+00       1.242952975779e-10       1.172101260651e-11      -7.515104198424e-15 
   34       1.499022032100e-10       4.362630113290e-15       2.663078998012e-13       0.000000000000e+00       1.172109006040e-10       1.109698459330e-11      -8.667451137974e-15 
   35       1.521844145744e-10       4.820316617949e-15       2.658727361213e-13       0.000000000000e+00       1.106784411905e-10       1.053457313875e-11      -9.594546164421e-15 
   36       1.544912414080e-10       5.309041120570e-15       2.641540738017e-13       0.000000000000e+00       1.046453164950e-10       1.001790067157e-11      -1.005849749639e-14 
   37       1.568131068749e-10       5.829609058120e-15       2.609592464680e-13       0.000000000000e+00       9.903279087315e-11       9.529125884897e-12      -9.860638773841e-15 
   38       1.591573353499e-10       6.382831390016e-15       2.562472164042e-13       0.000000000000e+00       9.382629349248e-11       9.067425389811e-12      -9.126058937263e-15 
   39       1.615333922260e-10       6.969490160472e-15       2.500321112921e-13       0.000000000000e+00       8.900926905437e-11       8.635739341080e-12      -8.116235750951e-15 
   40       1.639468148131e-10       7.590323253116e-15       2.423461608160e-13       0.000000000000e+00       8.453571586197e-11       8.235488626639e-12      -7.158363353248e-15 
   41       1.663991516805e-10       8.246013856321e-15       2.332275448727e-13       0.000000000000e+00       8.034620102097e-11       7.866397835544e-12      -6.565054026239e-15 
   42       1.688889090438e-10       8.937161697752e-15       2.226765136333e-13       0.000000000000e+00       7.642835018028e-11       7.526273293474e-12      -6.351721668157e-15 
   43       1.714101057892e-10       9.664297570398e-15       2.106868503955e-13       0.000000000000e+00       7.277172644822e-11       7.210887796428e-12      -6.434397490712e-15 
   44       1.739514391842e-10       1.042788680319e-14       1.972580940422e-13       0.000000000000e+00       6.934967929222e-11       6.913838096762e-12      -6.704857069672e-15 
   45       1.765009788787e-10       1.122835920085e-14       1.823845406116e-13       0.000000000000e+00       6.612885578385e-11       6.628440074002e-12      -7.051038670706e-15 
   46       1.790629840363e-10       1.206621760937e-14       1.660178729087e-13       0.000000000000e+00       6.310416622659e-11       6.354463900001e-12      -7.429217086924e-15 
   47       1.816453474826e-10       1.294195598035e-14       1.480936864085e-13       0.000000000000e+00       6.027207667521e-11       6.093142441762e-12      -7.810779688234e-15 
   48       1.842547373947e-10       1.385602735843e-14       1.285412703721e-13       0.000000000000e+00       5.762006363074e-11       5.845252802599e-12      -8.161864460899e-15 
   49       1.868964430438e-10       1.480884237723e-14       1.072831560365e-13       0.000000000000e+00       5.512594562069e-11       5.611075892260e-12      -8.443080374430e-15 
   50       1.895739058286e-10       1.580074425504e-14       8.424780633717e-14       0.000000000000e+00       5.276456014171e-11       5.390474063371e-12      -8.622237043970e-15 
   51       1.922875201827e-10       1.683192926943e-14       5.941279398477e-14       0.000000000000e+00       5.053148184312e-11       5.183242661726e-12      -8.717255958168e-15 
   52       1.950352405436e-10       1.790250209665e-14       3.277256260793e-14       0.000000000000e+00       4.842458697156e-11       4.988784014835e-12      -8.764423656081e-15 
   53       1.978127025600e-10       1.901249487728e-14       4.326472237814e-15       0.000000000000e+00       4.643695559856e-11       4.805963659309e-12      -8.806725134273e-15 
   54       2.006130540245e-10       2.016186460641e-14      -2.592103407675e-14       0.000000000000e+00       4.455654886491e-11       4.633075467045e-12      -8.894176415851e-15 
   55       2.034295109504e-10       2.135052463333e-14      -5.796355630345e-14       0.000000000000e+00       4.276987908093e-11       4.468318587666e-12      -9.070353998193e-15 
   56       2.062641567066e-10       2.257845430329e-14      -9.180340662081e-14       0.000000000000e+00       4.107482709703e-11       4.311446915470e-12      -9.327302604576e-15 
   57       2.091210326425e-10       2.384561198171e-14      -1.274432988413e-13       0.000000000000e+00       3.947044371121e-11       4.162468301267e-12      -9.640008070798e-15 
   58       2.120035429355e-10       2.515190207776e-14      -1.648832504828e-13       0.000000000000e+00       3.795307223440e-11       4.021154029165e-12      -9.979018277419e-15 
   59       2.149143916979e-10       2.649717376350e-14      -2.041205444390e-13       0.000000000000e+00       3.651618130052e-11       3.887023883655e-12      -1.031023793485e-14 
   60       2.178555200853e-10       2.788121969285e-14      -2.451496906485e-13       0.000000000000e+00       3.515019767665e-11       3.759331216694e-12      -1.059472336844e-14 
   61       2.208282699796e-10       2.930372655309e-14      -2.879633269423e-13       0.000000000000e+00       3.384516330356e-11       3.637283071640e-12      -1.079726591629e-14 
   62       2.238340602573e-10       3.076411664699e-14      -3.325552445846e-13       0.000000000000e+00       3.259978157874e-11       3.520792075152e-12      -1.091485776231e-14 
   63       2.268737514039e-10       3.226166831720e-14      -3.789179769201e-13       0.000000000000e+00       3.141411416825e-11       3.409867584839e-12      -1.095428048574e-14 
   64       2.299473777323e-10       3.379555822243e-14      -4.270419117617e-13       0.000000000000e+00       3.028685991192e-11       3.304388198327e-12      -1.092395244927e-14 
   65       2.330540916790e-10       3.536485852814e-14      -4.769152828599e-13       0.000000000000e+00       2.921527724423e-11       3.204094278514e-12      -1.083400244012e-14 
   66       2.361921081011e-10       3.696853409733e-14      -5.285241613720e-13       0.000000000000e+00       2.819510661511e-11       3.108580478833e-12      -1.069634331121e-14 
   67       2.393586485727e-10       3.860543968120e-14      -5.818524473312e-13       0.000000000000e+00       2.722049291072e-11       3.017288268507e-12      -1.052474562229e-14 
   68       2.425510280205e-10       4.027442884977e-14      -6.368822185062e-13       0.000000000000e+00       2.628554827201e-11       2.929652072257e-12      -1.033267532633e-14 
   69       2.457702948239e-10       4.197471269394e-14      -6.935948781333e-13       0.000000000000e+00       2.538958168468e-11       2.845588783478e-12      -1.012613343964e-14 
   70       2.490182316159e-10       4.370556909315e-14      -7.519702254884e-13       0.000000000000e+00       2.453279454391e-11       2.765094467103e-12      -9.909491126335e-15 
   71       2.522962521921e-10       4.546623745407e-14      -8.119861196724e-13       0.000000000000e+00       2.371469902766e-11       2.688096038882e-12      -9.687613441145e-15 
   72       2.556053750232e-10       4.725591875914e-14      -8.736184802211e-13       0.000000000000e+00       2.293408247136e-11       2.614447719403e-12      -9.465875784983e-15 
   73       2.589461967672e-10       4.907377561506e-14      -9.368412877144e-13       0.000000000000e+00       2.218897174267e-11       2.543927488106e-12      -9.250180360544e-15 
   74       2.623188657820e-10       5.091893230135e-14      -1.001626584387e-12       0.000000000000e+00       2.147659761614e-11       2.476233537300e-12      -9.046972627888e-15 
   75       2.657230556378e-10       5.279047481884e-14      -1.067944474735e-12       0.000000000000e+00       2.079335914799e-11       2.410980726185e-12      -8.863257760027e-15 
   76       2.691583538277e-10       5.468739047008e-14      -1.135762557377e-12       0.000000000000e+00       2.013571710623e-11       2.347799123338e-12      -8.704991211991e-15 
   77       2.726255682853e-10       5.660837377340e-14      -1.205044099660e-12       0.000000000000e+00       1.950314110244e-11       2.286658218463e-12      -8.571875224962e-15 
   78       2.761256121016e-10       5.855198508005e-14      -1.275749529741e-12       0.000000000000e+00       1.889563765663e-11       2.227595664568e-12      -8.461638927539e-15 
   79       2.796590917792e-10       6.051670673036e-14      -1.347836964942e-12       0.000000000000e+00       1.831285251265e-11       2.170619005316e-12      -8.371563431753e-15 
   80       2.832262892594e-10       6.250094186235e-14      -1.421262200691e-12       0.000000000000e+00       1.775405406391e-11       2.115704222454e-12      -8.298464948527e-15 
   81       2.868271439484e-10       6.450301322024e-14      -1.495978699471e-12       0.000000000000e+00       1.721811677916e-11       2.062794283238e-12      -8.238677903147e-15 
   82       2.904612347433e-10       6.652116196307e-14      -1.571937579769e-12       0.000000000000e+00       1.670350462822e-11       2.011797687852e-12      -8.188038050728e-15 
   83       2.941277620593e-10       6.855354647327e-14      -1.649087605019e-12       0.000000000000e+00       1.620825450774e-11       1.962587016839e-12      -8.141865591676e-15 
   84       2.978259019931e-10       7.059831543953e-14      -1.727376512421e-12       0.000000000000e+00       1.573045314764e-11       1.915033186906e-12      -8.095844470662e-15 
   85       3.015559756464e-10       7.265384363574e-14      -1.806755276704e-12       0.000000000000e+00       1.526979497509e-11       1.869117925098e-12      -8.048864744230e-15 
   86       3.053184415995e-10       7.471853322658e-14      -1.887174536224e-12       0.000000000000e+00       1.482625332413e-11       1.824837363927e-12      -8.000622651438e-15 
   87       3.091135294622e-10       7.679074302445e-14      -1.968583327239e-12       0.000000000000e+00       1.439960175887e-11       1.782167150949e-12      -7.950764530027e-15 
   88       3.129412281546e-10       7.886878854640e-14      -2.050929095376e-12       0.000000000000e+00       1.398940579305e-11       1.741061596326e-12      -7.898884993802e-15 
   89       3.168012741881e-10       8.095094207104e-14      -2.134157707095e-12       0.000000000000e+00       1.359501460962e-11       1.701452820390e-12      -7.844525110003e-15 
   90       3.206931399463e-10       8.303543269534e-14      -2.218213461153e-12       0.000000000000e+00       1.321555278024e-11       1.663249901216e-12      -7.787170576674e-15 
   91       3.246160219654e-10       8.512044639158e-14      -2.303039100076e-12       0.000000000000e+00       1.284991198486e-11       1.626338022177e-12      -7.726249900044e-15 
   92       3.285688292154e-10       8.720412606422e-14      -2.388575821617e-12       0.000000000000e+00       1.249674273124e-11       1.590577619516e-12      -7.661132571895e-15 
   93       3.325505217062e-10       8.928459625527e-14      -2.474763656285e-12       0.000000000000e+00       1.215477440300e-11       1.555838193999e-12      -7.591355869590e-15 
   94       3.365612100155e-10       9.136004138736e-14      -2.561542639969e-12       0.000000000000e+00       1.182384845140e-11       1.522107414452e-12      -7.517348234339e-15 
   95       3.406012002320e-10       9.342863944838e-14      -2.648851839693e-12       0.000000000000e+00       1.150402600897e-11       1.489396923694e-12      -7.439811825459e-15 
   96       3.446706515465e-10       9.548853878139e-14      -2.736629019545e-12       0.000000000000e+00       1.119526968380e-11       1.457708764971e-12      -7.359504889674e-15 
   97       3.487695693422e-10       9.753785847990e-14      -2.824810657163e-12       0.000000000000e+00       1.089743978599e-11       1.427035005356e-12      -7.277243076757e-15 
   98       3.528977982841e-10       9.957468878305e-14      -2.913331960231e-12       0.000000000000e+00       1.061029055410e-11       1.397357359139e-12      -7.193900755168e-15 
   99       3.570550154085e-10       1.015970914709e-13      -3.002126882964e-12       0.000000000000e+00       1.033346638160e-11       1.368646811222e-12      -7.110412327694e-15 
  100       3.612407232130e-10       1.036031002594e-13      -3.091128142603e-12       0.000000000000e+00       1.006649804335e-11       1.340863240511e-12      -7.027773547085e-15 
  101       3.654542427461e-10       1.055907211963e-13      -3.180267235903e-12       0.000000000000e+00       9.808798922023e-12       1.313955043314e-12      -6.947042831699e-15 
  102       3.696947066965e-10       1.075579330553e-13      -3.269474455624e-12       0.000000000000e+00       9.559661234587e-12       1.287858756729e-12      -6.869342581134e-15 
  103       3.739610524833e-10       1.095026877323e-13      -3.358678907022e-12       0.000000000000e+00       9.318252258747e-12       1.262498682039e-12      -6.795860491871e-15 
  104       3.782522447191e-10       1.114229620741e-13      -3.447809192820e-12       0.000000000000e+00       9.083803039330e-12       1.237804578018e-12      -6.727570286821e-15 
  105       3.825679917083e-10       1.133169204883e-13      -3.536795537984e-12       0.000000000000e+00       8.856211666798e-12       1.213768274042e-12      -6.664348105588e-15 
  106       3.869081133052e-10       1.151827751390e-13      -3.625567984056e-12       0.000000000000e+00       8.635514837282e-12       1.190394038081e-12      -6.605738648469e-15 
  107       3.912723158464e-10       1.170187374228e-13      -3.714055769846e-12       0.000000000000e+00       8.421701011597e-12       1.167681013822e-12      -6.551223357215e-15 
