# Matter power spectrum P(k) at redshift z=0
# for k=1.05585e-05 to 541.964 h/Mpc,
# number of wavenumbers equal to 630
#    1:k (h/Mpc)              2:P (Mpc/h)^3        
       1.055852937587e-05       4.658999162368e+01 
       2.354577459380e-05       1.011050137235e+02 
       3.657950796098e-05       1.547370172312e+02 
       4.969538056532e-05       2.080381762632e+02 
       6.292964339490e-05       2.613281353292e+02 
       7.631947591371e-05       3.148497178278e+02 
       8.990332531742e-05       3.688127611286e+02 
       1.037212610497e-04       4.234121235240e+02 
       1.178153491945e-04       4.788370233158e+02 
       1.322300513933e-04       5.352767396397e+02 
       1.470126529400e-04       5.929246225599e+02 
       1.622137246335e-04       6.519812788867e+02 
       1.778876227676e-04       7.126573036094e+02 
       1.940930312188e-04       7.751758289285e+02 
       2.108935488575e-04       8.397749709792e+02 
       2.283583243069e-04       9.067102927236e+02 
       2.465627382169e-04       9.762572295262e+02 
       2.655891304691e-04       1.048713620243e+03 
       2.855275657773e-04       1.124402190251e+03 
       3.064766256368e-04       1.203673004973e+03 
       3.285442070815e-04       1.286905807480e+03 
       3.518482988051e-04       1.374512126823e+03 
       3.765176924845e-04       1.466936925384e+03 
       4.026925713716e-04       1.564659690889e+03 
       4.305248994985e-04       1.668194424485e+03 
       4.601785138523e-04       1.778088522690e+03 
       4.918288003110e-04       1.894919765702e+03 
       5.256618150193e-04       2.019291078708e+03 
       5.618727010436e-04       2.151822725676e+03 
       6.006632522914e-04       2.293141073193e+03 
       6.422385010491e-04       2.443863989691e+03 
       6.868022605471e-04       2.604582581341e+03 
       7.345516458463e-04       2.775839600364e+03 
       7.856707252009e-04       2.958105268483e+03 
       8.403236098760e-04       3.151752035956e+03 
       8.986474502429e-04       3.357029771473e+03 
       9.607459348958e-04       3.574044237582e+03 
       1.026683947396e-03       3.802740919703e+03 
       1.096483989134e-03       4.042896218696e+03 
       1.170124815492e-03       4.294117824087e+03 
       1.247542476167e-03       4.555854549306e+03 
       1.328633649281e-03       4.827414709180e+03 
       1.413260878645e-03       5.107991626885e+03 
       1.501259123885e-03       5.396692183967e+03 
       1.592442948494e-03       5.692568915695e+03 
       1.686613702011e-03       5.994648091184e+03 
       1.783566171934e-03       6.301956521220e+03 
       1.883094346798e-03       6.613544236185e+03 
       1.984996103190e-03       6.928501238337e+03 
       2.089076776423e-03       7.245970393917e+03 
       2.195151682193e-03       7.565155517319e+03 
       2.303047722304e-03       7.885327839749e+03 
       2.412604237391e-03       8.205823852692e+03 
       2.523673272965e-03       8.526047790722e+03 
       2.636119411813e-03       8.845466129381e+03 
       2.749819303814e-03       9.163607199591e+03 
       2.864660999489e-03       9.480052504417e+03 
       2.980543169677e-03       9.794435235356e+03 
       3.097374272597e-03       1.010643361307e+04 
       3.215071712044e-03       1.041576765224e+04 
       3.333561016496e-03       1.072219327576e+04 
       3.452775058299e-03       1.102549957451e+04 
       3.572653324198e-03       1.132550318138e+04 
       3.693141242843e-03       1.162205049517e+04 
       3.814189570953e-03       1.191500708669e+04 
       3.935753837241e-03       1.220426031934e+04 
       4.057793841503e-03       1.248971629441e+04 
       4.180273205324e-03       1.277130028111e+04 
       4.303158970347e-03       1.304894618493e+04 
       4.426421239886e-03       1.332260387707e+04 
       4.550032859711e-03       1.359223924303e+04 
       4.673969134006e-03       1.385782126227e+04 
       4.798207572770e-03       1.411931266912e+04 
       4.922727667219e-03       1.437672373080e+04 
       5.047510690062e-03       1.463003449090e+04 
       5.172539517830e-03       1.487929723659e+04 
       5.297798472749e-03       1.512441767418e+04 
       5.423273181880e-03       1.536544879541e+04 
       5.548950451566e-03       1.560244360479e+04 
       5.674818155389e-03       1.583534195820e+04 
       5.800865134094e-03       1.606425592939e+04 
       5.927081106103e-03       1.628913118361e+04 
       6.053456587397e-03       1.651000160845e+04 
       6.179982819716e-03       1.672685541692e+04 
       6.306651706114e-03       1.693982903401e+04 
       6.433455753069e-03       1.714885225033e+04 
       6.560388018386e-03       1.735401301183e+04 
       6.687442064291e-03       1.755529890020e+04 
       6.814611915107e-03       1.775278556809e+04 
       6.941892019051e-03       1.794648694979e+04 
       7.069277213681e-03       1.813642892942e+04 
       7.196762694627e-03       1.832264863688e+04 
       7.324343987240e-03       1.850519050182e+04 
       7.452016920875e-03       1.868407468731e+04 
       7.579777605517e-03       1.885935076020e+04 
       7.707622410527e-03       1.903105902393e+04 
       7.835547945285e-03       1.919921852260e+04 
       7.963551041542e-03       1.936387500978e+04 
       8.091628737315e-03       1.952506579409e+04 
       8.219778262171e-03       1.968282046181e+04 
       8.347997023769e-03       1.983717632220e+04 
       8.476282595537e-03       1.998818091279e+04 
       8.604632705379e-03       2.013586671911e+04 
       8.733045225316e-03       2.028026451491e+04 
       8.861518161971e-03       2.042141381346e+04 
       8.990049647826e-03       2.055934344867e+04 
       9.118637933177e-03       2.069411229390e+04 
       9.247281378729e-03       2.082574100442e+04 
       9.375978448772e-03       2.095424938476e+04 
       9.504727704884e-03       2.107968938474e+04 
       9.633527800123e-03       2.120209729378e+04 
       9.762377473661e-03       2.132149275862e+04 
       9.891275545822e-03       2.143791848595e+04 
       1.002022091350e-02       2.155140711764e+04 
       1.014921254589e-02       2.166199022038e+04 
       1.027824948059e-02       2.176970119223e+04 
       1.040733081994e-02       2.187457387303e+04 
       1.053645572761e-02       2.197663881583e+04 
       1.066562342554e-02       2.207592506479e+04 
       1.079483319094e-02       2.217247278415e+04 
       1.092408435365e-02       2.226630495506e+04 
       1.105337629362e-02       2.235745693448e+04 
       1.118270843856e-02       2.244596155162e+04 
       1.131208026177e-02       2.253184362090e+04 
       1.144149128017e-02       2.261513762037e+04 
       1.157094105235e-02       2.269586514702e+04 
       1.170042917690e-02       2.277406920446e+04 
       1.182995529074e-02       2.284976880711e+04 
       1.195951906765e-02       2.292299821597e+04 
       1.208912021682e-02       2.299379066220e+04 
       1.221875848160e-02       2.306215997661e+04 
       1.234843363825e-02       2.312814329610e+04 
       1.247814549483e-02       2.319177784332e+04 
       1.260789389015e-02       2.325308644993e+04 
       1.273767869280e-02       2.331208821151e+04 
       1.286749980026e-02       2.336882187952e+04 
       1.299735713805e-02       2.342330351535e+04 
       1.312725065894e-02       2.347558138494e+04 
       1.325718034229e-02       2.352565664757e+04 
       1.338714619334e-02       2.357356451784e+04 
       1.351714824262e-02       2.361933704870e+04 
       1.364718654539e-02       2.366299845375e+04 
       1.377726118113e-02       2.370456479575e+04 
       1.390737225305e-02       2.374407624580e+04 
       1.403751988769e-02       2.378154469007e+04 
       1.416770423450e-02       2.381700014719e+04 
       1.429792546551e-02       2.385046493137e+04 
       1.442818377499e-02       2.388197047385e+04 
       1.455847937918e-02       2.391154388612e+04 
       1.468881251602e-02       2.393920212176e+04 
       1.481918344497e-02       2.396496799026e+04 
       1.494959244674e-02       2.398886585069e+04 
       1.508003982320e-02       2.401091880140e+04 
       1.521052589718e-02       2.403116102486e+04 
       1.534105101241e-02       2.404960589784e+04 
       1.547161553338e-02       2.406627297991e+04 
       1.560221984531e-02       2.408120495599e+04 
       1.573286435409e-02       2.409439532422e+04 
       1.586354948626e-02       2.410589939011e+04 
       1.599427568902e-02       2.411570308429e+04 
       1.612504343024e-02       2.412386283194e+04 
       1.625585319851e-02       2.413038230317e+04 
       1.638670550319e-02       2.413527726092e+04 
       1.651760087451e-02       2.413859523856e+04 
       1.664853986365e-02       2.414033587163e+04 
       1.677952304287e-02       2.414050855202e+04 
       1.691055100564e-02       2.413918853503e+04 
       1.704162436681e-02       2.413634095799e+04 
       1.717274376275e-02       2.413200195441e+04 
       1.730390985156e-02       2.412619618889e+04 
       1.743512331329e-02       2.411897493378e+04 
       1.756638485012e-02       2.411028184299e+04 
       1.769769518664e-02       2.410021153584e+04 
       1.782905507010e-02       2.408876449447e+04 
       1.796046527067e-02       2.407594661898e+04 
       1.809192658172e-02       2.406177585094e+04 
       1.822343982017e-02       2.404628684394e+04 
       1.835500582677e-02       2.402948244008e+04 
       1.848662546645e-02       2.401141528801e+04 
       1.861829962870e-02       2.399207567737e+04 
       1.875002922792e-02       2.397148018897e+04 
       1.888181520380e-02       2.394962710673e+04 
       1.901365852178e-02       2.392659719422e+04 
       1.914556017340e-02       2.390240994742e+04 
       1.927752117682e-02       2.387702416456e+04 
       1.940954257722e-02       2.385045765795e+04 
       1.954162544730e-02       2.382280245803e+04 
       1.967377088779e-02       2.379399246613e+04 
       1.980598002795e-02       2.376413187241e+04 
       1.993825402610e-02       2.373308899936e+04 
       2.007059407018e-02       2.370107800006e+04 
       2.020300137833e-02       2.366801180748e+04 
       2.033547719947e-02       2.363386755085e+04 
       2.046802281391e-02       2.359875117790e+04 
       2.060063953400e-02       2.356264880634e+04 
       2.073332870476e-02       2.352552810468e+04 
       2.086609170459e-02       2.348749148377e+04 
       2.099892994592e-02       2.344846912851e+04 
       2.113184487600e-02       2.340857291502e+04 
       2.126483797756e-02       2.336773958799e+04 
       2.139791076965e-02       2.332603403571e+04 
       2.153106480839e-02       2.328337385092e+04 
       2.166430168782e-02       2.323987805631e+04 
       2.179762304070e-02       2.319563585986e+04 
       2.193103053942e-02       2.315050482205e+04 
       2.206452589690e-02       2.310455588031e+04 
       2.219811086747e-02       2.305777574276e+04 
       2.233178724786e-02       2.301025657749e+04 
       2.246555687819e-02       2.296200091173e+04 
       2.259942164297e-02       2.291289758662e+04 
       2.273338347215e-02       2.286312335866e+04 
       2.286744434219e-02       2.281260508882e+04 
       2.300160627720e-02       2.276143004965e+04 
       2.313587135007e-02       2.270949319106e+04 
       2.327024168364e-02       2.265692328344e+04 
       2.340471945194e-02       2.260363508057e+04 
       2.353930688148e-02       2.254969239857e+04 
       2.367400625247e-02       2.249521242731e+04 
       2.380881990023e-02       2.244006412271e+04 
       2.394375021656e-02       2.238429319738e+04 
       2.407879965113e-02       2.232790648805e+04 
       2.421397071301e-02       2.227097095015e+04 
       2.434926597212e-02       2.221349765198e+04 
       2.448468806087e-02       2.215536244008e+04 
       2.462023967573e-02       2.209675138306e+04 
       2.475592357891e-02       2.203756075838e+04 
       2.489174260011e-02       2.197796599125e+04 
       2.502769963827e-02       2.191782487242e+04 
       2.516379766341e-02       2.185715733450e+04 
       2.530003971857e-02       2.179605126000e+04 
       2.543642892172e-02       2.173446083753e+04 
       2.557296846785e-02       2.167241004271e+04 
       2.570966163099e-02       2.160994699438e+04 
       2.584651176646e-02       2.154703044079e+04 
       2.598352231304e-02       2.148367864176e+04 
       2.612069679533e-02       2.141990057716e+04 
       2.625803882615e-02       2.135580122722e+04 
       2.639555210897e-02       2.129121500205e+04 
       2.653324044055e-02       2.122634185486e+04 
       2.667110771351e-02       2.116109565276e+04 
       2.680915791914e-02       2.109552189938e+04 
       2.694739515022e-02       2.102951014563e+04 
       2.708582360398e-02       2.096327309058e+04 
       2.722444758511e-02       2.089665003154e+04 
       2.736327150899e-02       2.082974078142e+04 
       2.750229990488e-02       2.076254396776e+04 
       2.764153741940e-02       2.069502030770e+04 
       2.778098881997e-02       2.062724986448e+04 
       2.792065899852e-02       2.055918061951e+04 
       2.806055297525e-02       2.049092709245e+04 
       2.820067590255e-02       2.042230545417e+04 
       2.834103306909e-02       2.035355229844e+04 
       2.848162990405e-02       2.028443882130e+04 
       2.862247198150e-02       2.021523934235e+04 
       2.876356502497e-02       2.014574063390e+04 
       2.890491491222e-02       2.007606388887e+04 
       2.904652768011e-02       2.000618891465e+04 
       2.918840952977e-02       1.993610086757e+04 
       2.933056683191e-02       1.986587379801e+04 
       2.947300613235e-02       1.979544806214e+04 
       2.961573415780e-02       1.972486338750e+04 
       2.975875782185e-02       1.965415338806e+04 
       2.990208423124e-02       1.958320910143e+04 
       3.004572069234e-02       1.951220413366e+04 
       3.018967471794e-02       1.944102925279e+04 
       3.033395403430e-02       1.936975097547e+04 
       3.047856658857e-02       1.929835493398e+04 
       3.062352055639e-02       1.922681062869e+04 
       3.076882434999e-02       1.915517503105e+04 
       3.091448662649e-02       1.908341628226e+04 
       3.106051629667e-02       1.901158498677e+04 
       3.120692253408e-02       1.893968685242e+04 
       3.135371478459e-02       1.886772227411e+04 
       3.150090277632e-02       1.879565445242e+04 
       3.164849653011e-02       1.872349497612e+04 
       3.179650637035e-02       1.865132077908e+04 
       3.194494293646e-02       1.857904166983e+04 
       3.209381719478e-02       1.850671539810e+04 
       3.224314045110e-02       1.843442993065e+04 
       3.239292436378e-02       1.836202574310e+04 
       3.254318095747e-02       1.828958423871e+04 
       3.269392263750e-02       1.821710034285e+04 
       3.284516220509e-02       1.814467300605e+04 
       3.299691287310e-02       1.807212907755e+04 
       3.314918828282e-02       1.799962509976e+04 
       3.330200252140e-02       1.792707082086e+04 
       3.345537014033e-02       1.785454358892e+04 
       3.360930617476e-02       1.778196877366e+04 
       3.376382616394e-02       1.770946385293e+04 
       3.391894617262e-02       1.763684819510e+04 
       3.407468281371e-02       1.756432952972e+04 
       3.423105327211e-02       1.749180479859e+04 
       3.438807532980e-02       1.741928563557e+04 
       3.454576739243e-02       1.734681315525e+04 
       3.470414851724e-02       1.727435227527e+04 
       3.486323844272e-02       1.720189437290e+04 
       3.502305761981e-02       1.712943223280e+04 
       3.518362724503e-02       1.705703419381e+04 
       3.534496929544e-02       1.698462978922e+04 
       3.550710656573e-02       1.691232283443e+04 
       3.567006270749e-02       1.684000779540e+04 
       3.583386227089e-02       1.676769543919e+04 
       3.599853074885e-02       1.669546724818e+04 
       3.616409462401e-02       1.662328935065e+04 
       3.633058141857e-02       1.655111574037e+04 
       3.649801974739e-02       1.647896258832e+04 
       3.666643937438e-02       1.640692107547e+04 
       3.683587127264e-02       1.633486559932e+04 
       3.700634768855e-02       1.626283316985e+04 
       3.717790221009e-02       1.619091423517e+04 
       3.735056983980e-02       1.611897183848e+04 
       3.752438707279e-02       1.604709606108e+04 
       3.769939198006e-02       1.597530015686e+04 
       3.787562429772e-02       1.590350675239e+04 
       3.805312552263e-02       1.583175255338e+04 
       3.823193901485e-02       1.576007618679e+04 
       3.841211010765e-02       1.568837759215e+04 
       3.859368622574e-02       1.561672238403e+04 
       3.877671701227e-02       1.554512429611e+04 
       3.896125446574e-02       1.547358142171e+04 
       3.914735308735e-02       1.540206941499e+04 
       3.933507004013e-02       1.533051778793e+04 
       3.952446532065e-02       1.525905364206e+04 
       3.971560194475e-02       1.518760597399e+04 
       3.990854614866e-02       1.511615751726e+04 
       4.010336760682e-02       1.504472612911e+04 
       4.030013966837e-02       1.497330568427e+04 
       4.049893961410e-02       1.490194748891e+04 
       4.069984893596e-02       1.483053672658e+04 
       4.090295364162e-02       1.475911577261e+04 
       4.110834458673e-02       1.468770503330e+04 
       4.131611783799e-02       1.461631448715e+04 
       4.152637507037e-02       1.454484819406e+04 
       4.173922400245e-02       1.447337579821e+04 
       4.195477887435e-02       1.440187682266e+04 
       4.217316097312e-02       1.433031908112e+04 
       4.239449921141e-02       1.425874614499e+04 
       4.261893076595e-02       1.418706862079e+04 
       4.284660178324e-02       1.411533240011e+04 
       4.307766816108e-02       1.404352809379e+04 
       4.331229641567e-02       1.397168169596e+04 
       4.355066464573e-02       1.389968348235e+04 
       4.379296360670e-02       1.382756085113e+04 
       4.403939791010e-02       1.375528625822e+04 
       4.429018736587e-02       1.368291294778e+04 
       4.454556848806e-02       1.361040711958e+04 
       4.480579618800e-02       1.353768731756e+04 
       4.507114568304e-02       1.346476547928e+04 
       4.534191465405e-02       1.339167273128e+04 
       4.561842569067e-02       1.331830444025e+04 
       4.590102907079e-02       1.324474452784e+04 
       4.619010592899e-02       1.317083978939e+04 
       4.648607187984e-02       1.309673100879e+04 
       4.678938117450e-02       1.302217428802e+04 
       4.710053148499e-02       1.294732836019e+04 
       4.742006943030e-02       1.287202984307e+04 
       4.774859698218e-02       1.279631669256e+04 
       4.808677891881e-02       1.272015121850e+04 
       4.843535153169e-02       1.264344863845e+04 
       4.879513283761e-02       1.256616206600e+04 
       4.916703460647e-02       1.248829261244e+04 
       4.955207658947e-02       1.240970949987e+04 
       4.995140342582e-02       1.233037122163e+04 
       5.036630482494e-02       1.225020900594e+04 
       5.079823977215e-02       1.216909906996e+04 
       5.124886569884e-02       1.208695764388e+04 
       5.172007380343e-02       1.200370154041e+04 
       5.221403202198e-02       1.191913314441e+04 
       5.273323754253e-02       1.183313009267e+04 
       5.328058125235e-02       1.174544142260e+04 
       5.385942711507e-02       1.165595446106e+04 
       5.447371019819e-02       1.156425942314e+04 
       5.512805787825e-02       1.147006897811e+04 
       5.582793954124e-02       1.137296096484e+04 
       5.657985061500e-02       1.127238253512e+04 
       5.739153646203e-02       1.116761599305e+04 
       5.827225937878e-02       1.105780869816e+04 
       5.923310545502e-02       1.094182652646e+04 
       6.028731321903e-02       1.081797296416e+04 
       6.145057579867e-02       1.068423587339e+04 
       6.274121232794e-02       1.053787588308e+04 
