# Matter power spectrum P(k) at redshift z=0
# for k=1.04891e-05 to 532.02 h/Mpc,
# number of wavenumbers equal to 629
#    1:k (h/Mpc)              2:P (Mpc/h)^3        
       1.048912248189e-05       4.749488609944e+01 
       2.342123705210e-05       1.031974284329e+02 
       3.639918491839e-05       1.579944630198e+02 
       4.945816293613e-05       2.124497882449e+02 
       6.263395465631e-05       2.668889689031e+02 
       7.596325192725e-05       3.215588986501e+02 
       8.948398685729e-05       3.766726290125e+02 
       1.032356785857e-04       4.324277891713e+02 
       1.172597993434e-04       4.890161009679e+02 
       1.316001643185e-04       5.466291917986e+02 
       1.463033498471e-04       6.054626299717e+02 
       1.614191443827e-04       6.657192002091e+02 
       1.770010365119e-04       7.276116193595e+02 
       1.931067438874e-04       7.913651087562e+02 
       2.097987862585e-04       8.572198615933e+02 
       2.271451046410e-04       9.254334932045e+02 
       2.452197269150e-04       9.962835041391e+02 
       2.641034775335e-04       1.070069777017e+03 
       2.838847252846e-04       1.147117086974e+03 
       3.046601578296e-04       1.227777560980e+03 
       3.265355646375e-04       1.312433027171e+03 
       3.496266005408e-04       1.401497134216e+03 
       3.740594900526e-04       1.495417072450e+03 
       3.999716175740e-04       1.594674639116e+03 
       4.275119307200e-04       1.699786381263e+03 
       4.568410638349e-04       1.811302592929e+03 
       4.881310678311e-04       1.929804386737e+03 
       5.215646135672e-04       2.055898768266e+03 
       5.573335235123e-04       2.190210933585e+03 
       5.956364866911e-04       2.333373432601e+03 
       6.366758326681e-04       2.486011874096e+03 
       6.806532898080e-04       2.648726912342e+03 
       7.277647375801e-04       2.822072981428e+03 
       7.781940832929e-04       3.006534242685e+03 
       8.321065421505e-04       3.202499103647e+03 
       8.896417554989e-04       3.410235335708e+03 
       9.509073132966e-04       3.629867768054e+03 
       1.015973314698e-03       3.861360983833e+03 
       1.084868571743e-03       4.104509517366e+03 
       1.157578920946e-03       4.358936981837e+03 
       1.234047870839e-03       4.624104205702e+03 
       1.314179524573e-03       4.899327026521e+03 
       1.397843437847e-03       5.183800536943e+03 
       1.484880863293e-03       5.476628325013e+03 
       1.575111730993e-03       5.776853264978e+03 
       1.668341727033e-03       6.083487768111e+03 
       1.764368935363e-03       6.395541218554e+03 
       1.862989663871e-03       6.712042261972e+03 
       1.964003242934e-03       7.032057983778e+03 
       2.067215732972e-03       7.354707341175e+03 
       2.172442589440e-03       7.679170307192e+03 
       2.279510404943e-03       8.004693372901e+03 
       2.388257883353e-03       8.330591935679e+03 
       2.498536208457e-03       8.656247792177e+03 
       2.610208959469e-03       8.981108890007e+03 
       2.723151705703e-03       9.304684699962e+03 
       2.837251388959e-03       9.626541483955e+03 
       2.952405578663e-03       9.946297300799e+03 
       3.068521663641e-03       1.026361909572e+04 
       3.185516026605e-03       1.057821401376e+04 
       3.303313233211e-03       1.088982902059e+04 
       3.421845256471e-03       1.119824567318e+04 
       3.541050749135e-03       1.150327278693e+04 
       3.660874370684e-03       1.180475050978e+04 
       3.781266171407e-03       1.210253854458e+04 
       3.902181033226e-03       1.239652128067e+04 
       4.023578165108e-03       1.268660075457e+04 
       4.145420649802e-03       1.297269838493e+04 
       4.267675038067e-03       1.325474709325e+04 
       4.390310986313e-03       1.353269585376e+04 
       4.513300933564e-03       1.380650595721e+04 
       4.636619813816e-03       1.407614692287e+04 
       4.760244800073e-03       1.434158808913e+04 
       4.884155076644e-03       1.460282350194e+04 
       5.008331636576e-03       1.485984941511e+04 
       5.132757101384e-03       1.511271034472e+04 
       5.257415560559e-03       1.536132066435e+04 
       5.382292428582e-03       1.560571433851e+04 
       5.507374317427e-03       1.584598010827e+04 
       5.632648922786e-03       1.608200533876e+04 
       5.758104922421e-03       1.631395907128e+04 
       5.883731885264e-03       1.654175996927e+04 
       6.009520190031e-03       1.676544196074e+04 
       6.135460952276e-03       1.698501001626e+04 
       6.261545958921e-03       1.720057896124e+04 
       6.387767609436e-03       1.741210024277e+04 
       6.514118862917e-03       1.761965077421e+04 
       6.640593190421e-03       1.782322458685e+04 
       6.767184531975e-03       1.802290237058e+04 
       6.893887257755e-03       1.821870252151e+04 
       7.020696132993e-03       1.841063597271e+04 
       7.147606286204e-03       1.859874485338e+04 
       7.274613180390e-03       1.878309947296e+04 
       7.401712586916e-03       1.896370355103e+04 
       7.528900561771e-03       1.914060585155e+04 
       7.656173423978e-03       1.931384032242e+04 
       7.783527735935e-03       1.948344096813e+04 
       7.910960285496e-03       1.964945976508e+04 
       8.038468069613e-03       1.981192415644e+04 
       8.166048279397e-03       1.997086687232e+04 
       8.293698286449e-03       2.012632913121e+04 
       8.421415630354e-03       2.027836085731e+04 
       8.549198007209e-03       2.042699659196e+04 
       8.677043259114e-03       2.057227070250e+04 
       8.804949364511e-03       2.071421418121e+04 
       8.932914429305e-03       2.085287662937e+04 
       9.060936678708e-03       2.098828662707e+04 
       9.189014449715e-03       2.112048345340e+04 
       9.317146184182e-03       2.124950210456e+04 
       9.445330422438e-03       2.137538370921e+04 
       9.573565797384e-03       2.149815956413e+04 
       9.701851029058e-03       2.161785517306e+04 
       9.830184919592e-03       2.173452338448e+04 
       9.958566348563e-03       2.184817944265e+04 
       1.008699426868e-02       2.195887538182e+04 
       1.021546770179e-02       2.206663715639e+04 
       1.034398573521e-02       2.217149327680e+04 
       1.047254751823e-02       2.227348869836e+04 
       1.060115225901e-02       2.237264659643e+04 
       1.072979922158e-02       2.246900587868e+04 
       1.085848772311e-02       2.256259683244e+04 
       1.098721713137e-02       2.265345322871e+04 
       1.111598686235e-02       2.274160519115e+04 
       1.124479637808e-02       2.282707791254e+04 
       1.137364518456e-02       2.290992004281e+04 
       1.150253282987e-02       2.299014712185e+04 
       1.163145890243e-02       2.306778644907e+04 
       1.176042302929e-02       2.314288666288e+04 
       1.188942487467e-02       2.321546310461e+04 
       1.201846413848e-02       2.328554798954e+04 
       1.214754055505e-02       2.335317565602e+04 
       1.227665389183e-02       2.341837021048e+04 
       1.240580394833e-02       2.348116979445e+04 
       1.253499055498e-02       2.354159778315e+04 
       1.266421357221e-02       2.359968405368e+04 
       1.279347288948e-02       2.365545290550e+04 
       1.292276842445e-02       2.370893892687e+04 
       1.305210012223e-02       2.376017367201e+04 
       1.318146795459e-02       2.380916777251e+04 
       1.331087191933e-02       2.385596019197e+04 
       1.344031203965e-02       2.390057727685e+04 
       1.356978836358e-02       2.394304608343e+04 
       1.369930096346e-02       2.398338092817e+04 
       1.382884993545e-02       2.402163399311e+04 
       1.395843539908e-02       2.405780382645e+04 
       1.408805749689e-02       2.409192614612e+04 
       1.421771639402e-02       2.412403476633e+04 
       1.434741227793e-02       2.415414632684e+04 
       1.447714535807e-02       2.418229475485e+04 
       1.460691586563e-02       2.420848589666e+04 
       1.473672405331e-02       2.423277297586e+04 
       1.486657019512e-02       2.425515771083e+04 
       1.499645458622e-02       2.427567115626e+04 
       1.512637754274e-02       2.429434277013e+04 
       1.525633940169e-02       2.431119155409e+04 
       1.538634052085e-02       2.432623696973e+04 
       1.551638127872e-02       2.433951467864e+04 
       1.564646207441e-02       2.435105059481e+04 
       1.577658332771e-02       2.436083197133e+04 
       1.590674547898e-02       2.436893376835e+04 
       1.603694898926e-02       2.437533575410e+04 
       1.616719434023e-02       2.438008061162e+04 
       1.629748203433e-02       2.438319727852e+04 
       1.642781259478e-02       2.438469116433e+04 
       1.655818656571e-02       2.438461024249e+04 
       1.668860451226e-02       2.438294136923e+04 
       1.681906702073e-02       2.437973182680e+04 
       1.694957469869e-02       2.437498450885e+04 
       1.708012817517e-02       2.436874466850e+04 
       1.721072810087e-02       2.436100274505e+04 
       1.734137514831e-02       2.435183085740e+04 
       1.747207001207e-02       2.434120513815e+04 
       1.760281340905e-02       2.432915696756e+04 
       1.773360607869e-02       2.431569859916e+04 
       1.786444878323e-02       2.430086715502e+04 
       1.799534230803e-02       2.428468196519e+04 
       1.812628746186e-02       2.426716152005e+04 
       1.825728507720e-02       2.424830595632e+04 
       1.838833601060e-02       2.422813713843e+04 
       1.851944114301e-02       2.420672496733e+04 
       1.865060138016e-02       2.418403178972e+04 
       1.878181765294e-02       2.416011426784e+04 
       1.891309091783e-02       2.413496637621e+04 
       1.904442215726e-02       2.410862476065e+04 
       1.917581238011e-02       2.408111795172e+04 
       1.930726262214e-02       2.405240210009e+04 
       1.943877394643e-02       2.402257657949e+04 
       1.957034744394e-02       2.399159119533e+04 
       1.970198423397e-02       2.395952917379e+04 
       1.983368546468e-02       2.392639372054e+04 
       1.996545231367e-02       2.389213885843e+04 
       2.009728598855e-02       2.385686830047e+04 
       2.022918772748e-02       2.382056511236e+04 
       2.036115879982e-02       2.378321182796e+04 
       2.049320050673e-02       2.374488884427e+04 
       2.062531418185e-02       2.370555630125e+04 
       2.075750119193e-02       2.366525274403e+04 
       2.088976293755e-02       2.362406224819e+04 
       2.102210085381e-02       2.358188860611e+04 
       2.115451641110e-02       2.353879778377e+04 
       2.128701111583e-02       2.349482372065e+04 
       2.141958651124e-02       2.344997315089e+04 
       2.155224417817e-02       2.340427252661e+04 
       2.168498573595e-02       2.335771573925e+04 
       2.181781284322e-02       2.331030548866e+04 
       2.195072719884e-02       2.326205210455e+04 
       2.208373054280e-02       2.321301733527e+04 
       2.221682465716e-02       2.316325651672e+04 
       2.235001136704e-02       2.311271397981e+04 
       2.248329254161e-02       2.306142350508e+04 
       2.261667009514e-02       2.300936027206e+04 
       2.275014598806e-02       2.295658297056e+04 
       2.288372222808e-02       2.290309105713e+04 
       2.301740087130e-02       2.284893514952e+04 
       2.315118402341e-02       2.279408238813e+04 
       2.328507384088e-02       2.273852025975e+04 
       2.341907253223e-02       2.268237398945e+04 
       2.355318235928e-02       2.262560882667e+04 
       2.368740563853e-02       2.256814918257e+04 
       2.382174474249e-02       2.251013949676e+04 
       2.395620210111e-02       2.245151824548e+04 
       2.409078020322e-02       2.239230002564e+04 
       2.422548159807e-02       2.233255187237e+04 
       2.436030889686e-02       2.227222781130e+04 
       2.449526477433e-02       2.221136069372e+04 
       2.463035197046e-02       2.215001688944e+04 
       2.476557329213e-02       2.208812802138e+04 
       2.490093161493e-02       2.202571803703e+04 
       2.503642988493e-02       2.196287329601e+04 
       2.517207112062e-02       2.189953963638e+04 
       2.530785841481e-02       2.183572258639e+04 
       2.544379493668e-02       2.177149698821e+04 
       2.557988393381e-02       2.170672430915e+04 
       2.571612873437e-02       2.164165984302e+04 
       2.585253274932e-02       2.157615032133e+04 
       2.598909947470e-02       2.151017416554e+04 
       2.612583249403e-02       2.144388608468e+04 
       2.626273548073e-02       2.137721414379e+04 
       2.639981220067e-02       2.131013280712e+04 
       2.653706651483e-02       2.124273387473e+04 
       2.667450238197e-02       2.117494688561e+04 
       2.681212386150e-02       2.110687043575e+04 
       2.694993511635e-02       2.103843998120e+04 
       2.708794041602e-02       2.096972506715e+04 
       2.722614413968e-02       2.090071455918e+04 
       2.736455077948e-02       2.083138806906e+04 
       2.750316494381e-02       2.076175332359e+04 
       2.764199136088e-02       2.069191204485e+04 
       2.778103488227e-02       2.062177052904e+04 
       2.792030048671e-02       2.055138914058e+04 
       2.805979328396e-02       2.048077052155e+04 
       2.819951851882e-02       2.040983981288e+04 
       2.833948157537e-02       2.033880735903e+04 
       2.847968798128e-02       2.026752907868e+04 
       2.862014341235e-02       2.019601487347e+04 
       2.876085369716e-02       2.012439689415e+04 
       2.890182482202e-02       2.005245081656e+04 
       2.904306293597e-02       1.998045728614e+04 
       2.918457435609e-02       1.990813074193e+04 
       2.932636557297e-02       1.983576129461e+04 
       2.946844325642e-02       1.976320598901e+04 
       2.961081426140e-02       1.969054503114e+04 
       2.975348563422e-02       1.961769209373e+04 
       2.989646461897e-02       1.954473804126e+04 
       3.003975866420e-02       1.947162816634e+04 
       3.018337542997e-02       1.939839905918e+04 
       3.032732279508e-02       1.932514488037e+04 
       3.047160886471e-02       1.925169519029e+04 
       3.061624197831e-02       1.917823940609e+04 
       3.076123071792e-02       1.910460390658e+04 
       3.090658391679e-02       1.903088331326e+04 
       3.105231066838e-02       1.895718078553e+04 
       3.119842033584e-02       1.888339926366e+04 
       3.134492256180e-02       1.880950110168e+04 
       3.149182727873e-02       1.873555569939e+04 
       3.163914471968e-02       1.866164061804e+04 
       3.178688542958e-02       1.858753711860e+04 
       3.193506027705e-02       1.851353679622e+04 
       3.208368046673e-02       1.843939628705e+04 
       3.223275755228e-02       1.836522241327e+04 
       3.238230344995e-02       1.829106968974e+04 
       3.253233045282e-02       1.821693610431e+04 
       3.268285124574e-02       1.814277540450e+04 
       3.283387892104e-02       1.806856568925e+04 
       3.298542699498e-02       1.799435336863e+04 
       3.313750942507e-02       1.792016143886e+04 
       3.329014062828e-02       1.784598150165e+04 
       3.344333550016e-02       1.777182561939e+04 
       3.359710943501e-02       1.769760827545e+04 
       3.375147834701e-02       1.762347794071e+04 
       3.390645869266e-02       1.754934725862e+04 
       3.406206749421e-02       1.747524210254e+04 
       3.421832236457e-02       1.740112915506e+04 
       3.437524153343e-02       1.732711836123e+04 
       3.453284387496e-02       1.725308229029e+04 
       3.469114893700e-02       1.717910762216e+04 
       3.485017697188e-02       1.710515377198e+04 
       3.500994896916e-02       1.703124138650e+04 
       3.517048669009e-02       1.695737722469e+04 
       3.533181270424e-02       1.688358858607e+04 
       3.549395042828e-02       1.680983684138e+04 
       3.565692416701e-02       1.673611690449e+04 
       3.582075915706e-02       1.666237749942e+04 
       3.598548161314e-02       1.658878029670e+04 
       3.615111877726e-02       1.651520950485e+04 
       3.631769897104e-02       1.644169893921e+04 
       3.648525165136e-02       1.636826225417e+04 
       3.665380746969e-02       1.629489074434e+04 
       3.682339833519e-02       1.622154454579e+04 
       3.699405748214e-02       1.614826569331e+04 
       3.716581954186e-02       1.607502801710e+04 
       3.733872061952e-02       1.600185408732e+04 
       3.751279837629e-02       1.592873666337e+04 
       3.768809211729e-02       1.585570187781e+04 
       3.786464288571e-02       1.578268356841e+04 
       3.804249356383e-02       1.570978277000e+04 
       3.822168898129e-02       1.563687438742e+04 
       3.840227603152e-02       1.556403090462e+04 
       3.858430379685e-02       1.549128387142e+04 
       3.876782368319e-02       1.541852681571e+04 
       3.895288956512e-02       1.534582681375e+04 
       3.913955794244e-02       1.527316474269e+04 
       3.932788810916e-02       1.520058689870e+04 
       3.951794233621e-02       1.512797620661e+04 
       3.970978606918e-02       1.505547490676e+04 
       3.990348814259e-02       1.498297890730e+04 
       4.009912101238e-02       1.491049591985e+04 
       4.029676100847e-02       1.483805138324e+04 
       4.049648860944e-02       1.476563023608e+04 
       4.069838874182e-02       1.469321810512e+04 
       4.090255110644e-02       1.462081349229e+04 
       4.110907053503e-02       1.454839177152e+04 
       4.131804738022e-02       1.447598557495e+04 
       4.152958794294e-02       1.440361285328e+04 
       4.174380494138e-02       1.433118594456e+04 
       4.196081802656e-02       1.425870381622e+04 
       4.218075434987e-02       1.418622036526e+04 
       4.240374918921e-02       1.411373273166e+04 
       4.262994664079e-02       1.404113327346e+04 
       4.285950038505e-02       1.396851955286e+04 
       4.309257453620e-02       1.389580776826e+04 
       4.332934458651e-02       1.382305403824e+04 
       4.356999845806e-02       1.375017286294e+04 
       4.381473767662e-02       1.367717965569e+04 
       4.406377868506e-02       1.360406748159e+04 
       4.431735431597e-02       1.353083140740e+04 
       4.457571544704e-02       1.345745904402e+04 
       4.483913286650e-02       1.338389573895e+04 
       4.510789938074e-02       1.331015637862e+04 
       4.538233220204e-02       1.323627299099e+04 
       4.566277566139e-02       1.316205579425e+04 
       4.594960429960e-02       1.308761425306e+04 
       4.624322640041e-02       1.301295622355e+04 
       4.654408804150e-02       1.293797217346e+04 
       4.685267775491e-02       1.286261583665e+04 
       4.716953190708e-02       1.278693699748e+04 
       4.749524093178e-02       1.271083529084e+04 
       4.783045657835e-02       1.263434079127e+04 
       4.817590037347e-02       1.255729017103e+04 
       4.853237353920e-02       1.247975828673e+04 
       4.890076866704e-02       1.240164179975e+04 
       4.928208351817e-02       1.232290597789e+04 
       4.967743741006e-02       1.224346364980e+04 
       5.008809076383e-02       1.216318385285e+04 
       5.051546853132e-02       1.208208692187e+04 
       5.096118840612e-02       1.199999994004e+04 
       5.142709495780e-02       1.191685660136e+04 
       5.191530112908e-02       1.183248631254e+04 
       5.242823891470e-02       1.174677917761e+04 
       5.296872151761e-02       1.165952561626e+04 
       5.354001986569e-02       1.157049385421e+04 
       5.414595707498e-02       1.147942535769e+04 
       5.479102524083e-02       1.138599981065e+04 
       5.548052973874e-02       1.128984448144e+04 
       5.622076680195e-02       1.119038630130e+04 
       5.701924001860e-02       1.108696626712e+04 
       5.788491953349e-02       1.097881235183e+04 
       5.882854213377e-02       1.086472214539e+04 
       5.986293729096e-02       1.074326427551e+04 
       6.100333713226e-02       1.061240606841e+04 
       6.226757730963e-02       1.046946960954e+04 
