# dimensionless total lensed [l(l+1)/2pi] C_l's
# for l=2 to 2500, i.e. number of multipoles equal to 2499
#
# -> if you prefer output in CAMB/HealPix/LensPix units/order, set 'format' to 'camb' in input file
# -> if you don't want to see such a header, set 'headers' to 'no' in input file
# -> for CMB lensing (phi), these are C_l^phi-phi for the lensing potential.
#    Remember the conversion factors:
#    C_l^dd (deflection) = l(l+1) C_l^phi-phi
#    C_l^gg (shear/convergence) = 1/4 (l(l+1))^2 C_l^phi-phi
#
# 1:l     2:TT                     3:EE                     4:TE                     5:BB                     6:phiphi                 7:TPhi                   8:Ephi               
    2       1.412009642021e-10       4.084951627505e-15       3.777792770340e-13       2.322324644995e-19       8.293409634857e-09       4.245495147723e-10      -1.823952797620e-12 
    3       1.339116133576e-10       5.255703107936e-15       4.211924715290e-13       4.645606193492e-19       5.090714228857e-09       3.027395155206e-10      -1.384935093506e-12 
    4       1.267449843664e-10       4.569371097317e-15       3.921589060293e-13       7.744783949459e-19       3.542049818561e-09       2.298216726530e-10      -9.104831347409e-13 
    5       1.212629959970e-10       3.065867658989e-15       3.324589069179e-13       1.162108010901e-18       2.645421817455e-09       1.816962792672e-10      -5.099172555292e-13 
    6       1.173889439743e-10       1.722768942098e-15       2.660750259865e-13       1.627597755654e-18       2.067281012079e-09       1.478373200284e-10      -2.136319499211e-13 
    7       1.147760554350e-10       9.317286994031e-16       2.070899635068e-13       2.171119200141e-18       1.668313238612e-09       1.229694379776e-10      -2.348299298735e-14 
    8       1.131651360465e-10       5.987339332118e-16       1.617282545256e-13       2.792864048971e-18       1.378869814131e-09       1.041479568461e-10       7.473740183531e-14 
    9       1.122614098854e-10       4.801531514827e-16       1.313974936015e-13       3.493040723558e-18       1.160783476258e-09       8.955090790798e-11       1.035871960337e-13 
   10       1.119319752189e-10       4.113155356070e-16       1.146352675881e-13       4.271870778201e-18       9.917631719038e-10       7.795190901862e-11       8.824883303346e-14 
   11       1.120052860923e-10       3.481935117107e-16       1.085139301562e-13       5.129585253103e-18       8.354946111997e-10       6.878522653238e-11       5.229979642020e-14 
   12       1.123723052500e-10       3.051495448306e-16       1.097871533227e-13       6.066421067618e-18       7.300256760980e-10       6.086809554902e-11       1.332381837105e-14 
   13       1.130312355313e-10       2.938054508849e-16       1.155807776729e-13       7.082617552758e-18       6.434363796143e-10       5.424283506178e-11      -1.711144245982e-14 
   14       1.139313571253e-10       3.070602058345e-16       1.236314329505e-13       8.178413214283e-18       5.713977818368e-10       4.879212886017e-11      -3.382402832120e-14 
   15       1.149553690355e-10       3.332356398772e-16       1.324280380311e-13       9.354042806923e-18       5.107699403688e-10       4.405955752931e-11      -3.734866488900e-14 
   16       1.161321941503e-10       3.694432066071e-16       1.412925348248e-13       1.060973478687e-17       4.592208151769e-10       3.987967372532e-11      -3.136499247437e-14 
   17       1.174553872785e-10       4.208779344013e-16       1.500297001632e-13       1.194570919404e-17       4.149998774123e-10       3.626350142708e-11      -2.073670886841e-14 
   18       1.188746208800e-10       4.930725128717e-16       1.588618415465e-13       1.336217581056e-17       3.766191257021e-10       3.313341182047e-11      -1.030183326923e-14 
   19       1.203946830031e-10       5.866108953644e-16       1.680059721976e-13       1.485933392874e-17       3.434704967732e-10       3.043015021961e-11      -2.726519832873e-15 
   20       1.219833321284e-10       6.997579329013e-16       1.776286106543e-13       1.643736957162e-17       3.142760762703e-10       2.803595383490e-11       1.623654011086e-16 
   21       1.236463010842e-10       8.317864685764e-16       1.877450486557e-13       1.809645816405e-17       2.885771138404e-10       2.590651508200e-11      -1.189238490701e-15 
   22       1.253698707480e-10       9.820300060735e-16       1.982401045243e-13       1.983676147709e-17       2.657585090820e-10       2.399019664771e-11      -5.157080962119e-15 
   23       1.271553355732e-10       1.150819937663e-15       2.087747679857e-13       2.165843172334e-17       2.455063938451e-10       2.228067906174e-11      -1.001603955111e-14 
   24       1.289892109469e-10       1.338602858277e-15       2.188928317706e-13       2.356160844905e-17       2.273523881270e-10       2.076276823020e-11      -1.388379477144e-14 
   25       1.308831425906e-10       1.545438941390e-15       2.282879185263e-13       2.554642428758e-17       2.110826039018e-10       1.941056707032e-11      -1.589220730740e-14 
   26       1.328383377769e-10       1.771478827077e-15       2.367046061343e-13       2.761300121769e-17       1.964023003430e-10       1.818026784123e-11      -1.566377329229e-14 
   27       1.348422838808e-10       2.018606605429e-15       2.440369719102e-13       2.976145604410e-17       1.831360812843e-10       1.704782973084e-11      -1.380436081160e-14 
   28       1.368701015791e-10       2.289246585976e-15       2.502554852551e-13       3.199189783563e-17       1.710561426972e-10       1.599003477175e-11      -1.131376371871e-14 
   29       1.389309547297e-10       2.584898047504e-15       2.554279510920e-13       3.430443665881e-17       1.601006284731e-10       1.501137360277e-11      -8.823965766885e-15 
   30       1.410338941652e-10       2.906782509684e-15       2.596909186823e-13       3.669917636487e-17       1.501512628653e-10       1.411877599956e-11      -6.963781979979e-15 
   31       1.431772703480e-10       3.256061398487e-15       2.631821335376e-13       3.917621452210e-17       1.410044649389e-10       1.331148802679e-11      -6.316158043451e-15 
   32       1.453636737374e-10       3.633659730042e-15       2.658397107388e-13       4.173565312226e-17       1.326131571199e-10       1.258355632052e-11      -6.722779551561e-15 
   33       1.475878419607e-10       4.040362961379e-15       2.675263891160e-13       4.437759174845e-17       1.249184617650e-10       1.192063244535e-11      -7.706970100131e-15 
   34       1.498372503288e-10       4.476895408171e-15       2.680937343647e-13       4.710212619354e-17       1.178131497624e-10       1.130378573739e-11      -8.735613904457e-15 
   35       1.521128475250e-10       4.944066197076e-15       2.674325449978e-13       4.990935328497e-17       1.112608319965e-10       1.072828007593e-11      -9.546279888515e-15 
   36       1.544137861184e-10       5.442664370310e-15       2.654382460316e-13       5.279936791192e-17       1.052087421704e-10       1.019045418741e-11      -9.926452032997e-15 
   37       1.567352274771e-10       5.973450675240e-15       2.620145286420e-13       5.577226104933e-17       9.957791541467e-11       9.684714980651e-12      -9.701004169300e-15 
   38       1.590826317296e-10       6.537277816471e-15       2.571338541038e-13       5.882811688902e-17       9.435381524737e-11       9.211560549862e-12      -8.993126896141e-15 
   39       1.614610616904e-10       7.135005085608e-15       2.507973832949e-13       6.196701490270e-17       8.951994704822e-11       8.771751769339e-12      -8.052668539248e-15 
   40       1.638706655170e-10       7.767463838829e-15       2.430197769919e-13       6.518903068542e-17       8.503029899083e-11       8.363909167023e-12      -7.191449171311e-15 
   41       1.663083303753e-10       8.435430922938e-15       2.338192461469e-13       6.849423273877e-17       8.082538117692e-11       7.985162673891e-12      -6.704767114184e-15 
   42       1.687745921697e-10       9.139542968227e-15       2.231819348048e-13       7.188267142315e-17       7.689281340347e-11       7.633835257753e-12      -6.595528867066e-15 
   43       1.712680640347e-10       9.880351101127e-15       2.110872536448e-13       7.535438650568e-17       7.322212616166e-11       7.307296822786e-12      -6.767076467745e-15 
   44       1.737830521779e-10       1.065833979765e-14       1.975176484759e-13       7.890940995923e-17       6.978657655017e-11       7.001051485023e-12      -7.096322937236e-15 
   45       1.763127856102e-10       1.147394375757e-14       1.824531356317e-13       8.254776206607e-17       6.655269933368e-11       6.710119115102e-12      -7.458670225969e-15 
   46       1.788611772107e-10       1.232761290892e-14       1.658528701539e-13       8.626943874097e-17       6.351541771914e-11       6.434005351440e-12      -7.815561263084e-15 
   47       1.814339143263e-10       1.321976079808e-14       1.476681320698e-13       9.007442012837e-17       6.067122580835e-11       6.172977152844e-12      -8.150276613173e-15 
   48       1.840349663156e-10       1.415074353999e-14       1.278470791822e-13       9.396267362432e-17       5.800760010842e-11       5.926616838503e-12      -8.443500448687e-15 
   49       1.866664024445e-10       1.512085744419e-14       1.063344682843e-13       9.793415349153e-17       5.550232879982e-11       5.693768536931e-12      -8.673189993044e-15 
   50       1.893288463478e-10       1.613032820774e-14       8.307830417224e-14       1.019888007328e-16       5.313020518315e-11       5.472980501479e-12      -8.822667068039e-15 
   51       1.920234073200e-10       1.717928054389e-14       5.805256114950e-14       1.061265435638e-16       5.088680602036e-11       5.264097836282e-12      -8.907784923280e-15 
   52       1.947499584742e-10       1.826775620580e-14       3.124014712053e-14       1.103472964033e-16       4.877000815423e-11       5.067009531487e-12      -8.956909859902e-15 
   53       1.975063974575e-10       1.939571899379e-14       2.626560944457e-15       1.146509592616e-16       4.677287195420e-11       4.881160883109e-12      -9.003593914131e-15 
   54       2.002884943030e-10       2.056305198449e-14      -2.780006033621e-14       1.190374173683e-16       4.488331713410e-11       4.705523276873e-12      -9.086831222935e-15 
   55       2.030917233911e-10       2.176962205130e-14      -6.004911812120e-14       1.235065498625e-16       4.308780838983e-11       4.538901223032e-12      -9.240478699415e-15 
   56       2.059176408203e-10       2.301549854337e-14      -9.412824170803e-14       1.280582592490e-16       4.138422717035e-11       4.381012002486e-12      -9.457853126841e-15 
   57       2.087688248140e-10       2.430078407773e-14      -1.300426873873e-13       1.326924486064e-16       3.977162970015e-11       4.231621301964e-12      -9.718788267324e-15 
   58       2.116469572006e-10       2.562555186163e-14      -1.677950919253e-13       1.374090131456e-16       3.824635301556e-11       4.090212756906e-12      -9.999537806276e-15 
   59       2.145527485694e-10       2.698984554337e-14      -2.073854340575e-13       1.422078401903e-16       3.680184700921e-11       3.955970874952e-12      -1.027260954832e-14 
   60       2.174858634256e-10       2.839367906319e-14      -2.488109959808e-13       1.470888091569e-16       3.542850647443e-11       3.827763959435e-12      -1.050659961319e-14 
   61       2.204456720316e-10       2.983692622730e-14      -2.920657941406e-13       1.520518075838e-16       3.411633929244e-11       3.704457148306e-12      -1.067315170388e-14 
   62       2.234338724545e-10       3.131896080332e-14      -3.371388094044e-13       1.570967834687e-16       3.286405081134e-11       3.585972271593e-12      -1.077003539061e-14 
   63       2.264523269306e-10       3.283893500808e-14      -3.840152894918e-13       1.622237046970e-16       3.167170979319e-11       3.472436670418e-12      -1.080297734797e-14 
   64       2.295022394625e-10       3.439587907998e-14      -4.326771903769e-13       1.674325445102e-16       3.053801578152e-11       3.363867602565e-12      -1.077905246588e-14 
   65       2.325841072044e-10       3.598869763084e-14      -4.831031209416e-13       1.727232819949e-16       2.946022113439e-11       3.260165640281e-12      -1.070674411873e-14 
   66       2.356976718479e-10       3.761616599775e-14      -5.352682876302e-13       1.780959025723e-16       2.843405305756e-11       3.161108068085e-12      -1.059600443437e-14 
   67       2.388418710073e-10       3.927692659496e-14      -5.891444391031e-13       1.835503984881e-16       2.745363563751e-11       3.066342280572e-12      -1.045831456319e-14 
   68       2.420155273471e-10       4.096963602160e-14      -6.447026138989e-13       1.890867768163e-16       2.651305948444e-11       2.975490941217e-12      -1.030479919277e-14 
   69       2.452196867817e-10       4.269344915342e-14      -7.019221536429e-13       1.947050842608e-16       2.561163426786e-11       2.888506959908e-12      -1.013999172910e-14 
   70       2.484556688999e-10       4.444762703780e-14      -7.607834251171e-13       2.004053882817e-16       2.474956530995e-11       2.805378913222e-12      -9.966908242306e-15 
   71       2.517243419296e-10       4.623139502053e-14      -8.212651948932e-13       2.061877706952e-16       2.392636495848e-11       2.726021970821e-12      -9.788891758617e-15 
   72       2.550260929918e-10       4.804394295335e-14      -8.833446456744e-13       2.120523283549e-16       2.314081675823e-11       2.650274151595e-12      -9.609622765912e-15 
   73       2.583607983532e-10       4.988442540143e-14      -9.469973926377e-13       2.179991738338e-16       2.239093962248e-11       2.577892579803e-12      -9.433129719222e-15 
   74       2.617277936807e-10       5.175196185091e-14      -1.012197499776e-12       2.240284361060e-16       2.167395200444e-11       2.508549741216e-12      -9.263799546256e-15 
   75       2.651258442942e-10       5.364563691634e-14      -1.078917496241e-12       2.301402612282e-16       2.098623606875e-11       2.441829739258e-12      -9.106388152915e-15 
   76       2.685537223269e-10       5.556443558877e-14      -1.147127338269e-12       2.363348046770e-16       2.032423598578e-11       2.377332089668e-12      -8.964931941652e-15 
   77       2.720121254674e-10       5.750703488899e-14      -1.216791040289e-12       2.426122052396e-16       1.968742112928e-11       2.315013231898e-12      -8.839229989777e-15 
   78       2.755020556914e-10       5.947197442172e-14      -1.287869456323e-12       2.489726075784e-16       1.907580064939e-11       2.254900781467e-12      -8.727736485432e-15 
   79       2.790242263745e-10       6.145771685824e-14      -1.360321274697e-12       2.554161706555e-16       1.848902088274e-11       2.196990002411e-12      -8.628590970004e-15 
   80       2.825790449911e-10       6.346264681185e-14      -1.434103012770e-12       2.619430682433e-16       1.792634867892e-11       2.141242268590e-12      -8.539606308026e-15 
   81       2.861665958124e-10       6.548506971333e-14      -1.509169011652e-12       2.685534894351e-16       1.738665472680e-11       2.087583524995e-12      -8.458256657068e-15 
   82       2.897866226058e-10       6.752321068639e-14      -1.585471430924e-12       2.752476391559e-16       1.686839688099e-11       2.035902749054e-12      -8.381665437640e-15 
   83       2.934385113329e-10       6.957521342317e-14      -1.662960243357e-12       2.820257386727e-16       1.636960348825e-11       1.986050411940e-12      -8.306593303087e-15 
   84       2.971216218904e-10       7.163920868919e-14      -1.741584042648e-12       2.888880232239e-16       1.588835279823e-11       1.937877508759e-12      -8.230159520440e-15 
   85       3.008363844174e-10       7.371353535024e-14      -1.821292632027e-12       2.958347333366e-16       1.542433903527e-11       1.891363453927e-12      -8.152169870502e-15 
   86       3.045833538567e-10       7.579655409569e-14      -1.902034857099e-12       3.028661229991e-16       1.497753658505e-11       1.846506665601e-12      -8.073154402004e-15 
   87       3.083628658051e-10       7.788658111177e-14      -1.983757839253e-12       3.099824628699e-16       1.454771878036e-11       1.803285037688e-12      -7.993668624805e-15 
   88       3.121750250785e-10       7.998188812734e-14      -2.066406984041e-12       3.171840407403e-16       1.413444956506e-11       1.761655082986e-12      -7.914293806024e-15 
   89       3.160196942770e-10       8.208070245954e-14      -2.149925989567e-12       3.244711619956e-16       1.373707515801e-11       1.721551076318e-12      -7.835637266171e-15 
   90       3.198964823496e-10       8.418120705952e-14      -2.234256854868e-12       3.318441500782e-16       1.335471571705e-11       1.682884197667e-12      -7.758332675279e-15 
   91       3.238047331590e-10       8.628154055816e-14      -2.319339888304e-12       3.393033469494e-16       1.298625700295e-11       1.645541675314e-12      -7.683040349035e-15 
   92       3.277435140468e-10       8.837979731173e-14      -2.405113715935e-12       3.468491135515e-16       1.263034204337e-11       1.609385928977e-12      -7.610447544917e-15 
   93       3.317119115282e-10       9.047405627330e-14      -2.491515916023e-12       3.544818392102e-16       1.228569319016e-11       1.574287388215e-12      -7.541109222279e-15 
   94       3.357099940865e-10       9.256247247464e-14      -2.578485013459e-12       3.622019704549e-16       1.195215180536e-11       1.540230454989e-12      -7.474942283313e-15 
   95       3.397379737146e-10       9.464319945174e-14      -2.665958802195e-12       3.700099874078e-16       1.162978025909e-11       1.507221967775e-12      -7.411655459472e-15 
   96       3.437959045646e-10       9.671436208051e-14      -2.753873762613e-12       3.779063958068e-16       1.131854171917e-11       1.475258556977e-12      -7.350900201446e-15 
   97       3.478836757288e-10       9.877405701823e-14      -2.842165078500e-12       3.858917275908e-16       1.101829635033e-11       1.444326250312e-12      -7.292268785375e-15 
   98       3.520010040206e-10       1.008203531449e-13      -2.930766654031e-12       3.939665414839e-16       1.072879751337e-11       1.414400078204e-12      -7.235292419047e-15 
   99       3.561474267550e-10       1.028512920046e-13      -3.019611130745e-12       4.021314235811e-16       1.044968796444e-11       1.385443679175e-12      -7.179439348112e-15 
  100       3.603222945298e-10       1.048648882470e-13      -3.108629904526e-12       4.103869879325e-16       1.018049605418e-11       1.357408905238e-12      -7.124112962288e-15 
  101       3.645247640062e-10       1.068591300687e-13      -3.197753142585e-12       4.187338771288e-16       9.920631927004e-12       1.330235427287e-12      -7.068649901564e-15 
  102       3.687537906897e-10       1.088319796543e-13      -3.286909800431e-12       4.271727628858e-16       9.669383720256e-12       1.303850340487e-12      -7.012318162410e-15 
  103       3.730081217107e-10       1.107813736185e-13      -3.376027638859e-12       4.357043466292e-16       9.425913763454e-12       1.278167769667e-12      -6.954315203986e-15 
  104       3.772865570840e-10       1.127052748351e-13      -3.465034016568e-12       4.443293379765e-16       9.189448545852e-12       1.253109208489e-12      -6.893957226922e-15 
  105       3.815887892285e-10       1.146018349493e-13      -3.553858353411e-12       4.530483856113e-16       8.959886031268e-12       1.228668515967e-12      -6.831280208424e-15 
  106       3.859146639231e-10       1.164692547440e-13      -3.642430033096e-12       4.618621381174e-16       8.737263678799e-12       1.204855005242e-12      -6.766516905650e-15 
  107       3.902639177391e-10       1.183057357052e-13      -3.730677682456e-12       4.707712655872e-16       8.521570349160e-12       1.181673329099e-12      -6.699913137887e-15 
