# dimensionless total [l(l+1)/2pi] C_l's
# for l=2 to 3000, i.e. number of multipoles equal to 2999
#
# -> if you prefer output in CAMB/HealPix/LensPix units/order, set 'format' to 'camb' in input file
# -> if you don't want to see such a header, set 'headers' to 'no' in input file
# -> for CMB lensing (phi), these are C_l^phi-phi for the lensing potential.
#    Remember the conversion factors:
#    C_l^dd (deflection) = l(l+1) C_l^phi-phi
#    C_l^gg (shear/convergence) = 1/4 (l(l+1))^2 C_l^phi-phi
#
# 1:l     2:TT                     3:EE                     4:TE                     5:BB                     6:phiphi                 7:TPhi                   8:Ephi               
    2       1.423017822949e-10       4.161481037724e-15       3.794385483984e-13       0.000000000000e+00       8.228409968308e-09       4.314346936286e-10      -1.840049658049e-12 
    3       1.347279387097e-10       5.343108209943e-15       4.237532762681e-13       0.000000000000e+00       5.062554230399e-09       3.069372774795e-10      -1.394939296562e-12 
    4       1.273679675002e-10       4.631359771963e-15       3.945414907684e-13       0.000000000000e+00       3.517598860156e-09       2.326855742877e-10      -9.149122124491e-13 
    5       1.217353429927e-10       3.096263579722e-15       3.342368407601e-13       0.000000000000e+00       2.624625995466e-09       1.838268339547e-10      -5.103208151057e-13 
    6       1.177686808219e-10       1.733666006723e-15       2.672282478117e-13       0.000000000000e+00       2.049775190568e-09       1.495259626504e-10      -2.117256972473e-13 
    7       1.150869999330e-10       9.355738776291e-16       2.077227918781e-13       0.000000000000e+00       1.653541819234e-09       1.243372506392e-10      -2.077168254402e-14 
    8       1.134104811436e-10       6.011292151393e-16       1.619928705947e-13       0.000000000000e+00       1.366636529126e-09       1.052357676235e-10       7.719387873699e-14 
    9       1.124888289835e-10       4.813088538151e-16       1.314078164464e-13       0.000000000000e+00       1.150809654549e-09       9.041303014213e-11       1.052116528195e-13 
   10       1.120955182583e-10       4.102348610506e-16       1.145214139457e-13       0.000000000000e+00       9.835341966295e-10       7.866858956625e-11       8.890033184379e-14 
   11       1.121658079628e-10       3.448773343001e-16       1.084169023329e-13       0.000000000000e+00       8.285438439398e-10       6.949511372487e-11       5.221884822535e-14 
   12       1.125514347082e-10       3.002556970110e-16       1.097383801304e-13       0.000000000000e+00       7.238372397296e-10       6.141130198716e-11       1.272588814745e-14 
   13       1.131994235232e-10       2.876121138964e-16       1.154981257759e-13       0.000000000000e+00       6.378930254561e-10       5.486264693709e-11      -1.755105156831e-14 
   14       1.140564297687e-10       2.993381718329e-16       1.234517166176e-13       0.000000000000e+00       5.663968847178e-10       4.914187904992e-11      -3.426744508811e-14 
   15       1.151117703851e-10       3.236778331947e-16       1.322006857353e-13       0.000000000000e+00       5.062229287057e-10       4.434347594904e-11      -3.748941729089e-14 
   16       1.162929312013e-10       3.579218748314e-16       1.409869669661e-13       0.000000000000e+00       4.550673683568e-10       4.021478711607e-11      -3.107612129298e-14 
   17       1.176194852509e-10       4.075689865073e-16       1.495973002962e-13       0.000000000000e+00       4.111899530701e-10       3.661515997566e-11      -2.016416716067e-14 
   18       1.190301298564e-10       4.781092434176e-16       1.583253858164e-13       0.000000000000e+00       3.731111676711e-10       3.347235254754e-11      -9.646045781855e-15 
   19       1.205358012262e-10       5.699205919385e-16       1.674049109588e-13       0.000000000000e+00       3.402262782698e-10       3.074360462137e-11      -2.158069563886e-15 
   20       1.221253305998e-10       6.810502681045e-16       1.769921652131e-13       0.000000000000e+00       3.112660307570e-10       2.832552093418e-11       5.409653742402e-16 
   21       1.238015990290e-10       8.108677435855e-16       1.870850865207e-13       0.000000000000e+00       2.857748590879e-10       2.617345187331e-11      -1.023432698581e-15 
   22       1.255403079275e-10       9.588865901417e-16       1.975466433752e-13       0.000000000000e+00       2.631425028206e-10       2.422984009645e-11      -5.143152271980e-15 
   23       1.273442906987e-10       1.125337718307e-15       2.080266896918e-13       0.000000000000e+00       2.430574094915e-10       2.248437279336e-11      -1.008540710712e-14 
   24       1.292037597116e-10       1.310479753333e-15       2.180657418603e-13       0.000000000000e+00       2.250548140827e-10       2.092040422065e-11      -1.398862941757e-14 
   25       1.311224998246e-10       1.514344849947e-15       2.273785948589e-13       0.000000000000e+00       2.089226336390e-10       1.952205120718e-11      -1.599978833674e-14 
   26       1.330917647855e-10       1.737127702262e-15       2.357344690285e-13       0.000000000000e+00       1.943685424205e-10       1.825913438303e-11      -1.575352806228e-14 
   27       1.351042229085e-10       1.980822997320e-15       2.430114719639e-13       0.000000000000e+00       1.812176742769e-10       1.711208873132e-11      -1.384644724112e-14 
   28       1.371443372608e-10       2.247976619750e-15       2.491528560108e-13       0.000000000000e+00       1.692430269180e-10       1.605780591952e-11      -1.126874882093e-14 
   29       1.392213517847e-10       2.540074418831e-15       2.542241957240e-13       0.000000000000e+00       1.583833120864e-10       1.509468654366e-11      -8.678586872729e-15 
   30       1.413409735415e-10       2.858269997567e-15       2.583689665690e-13       0.000000000000e+00       1.485217901322e-10       1.421962028174e-11      -6.749626486473e-15 
   31       1.434981911123e-10       3.203655107405e-15       2.617357275470e-13       0.000000000000e+00       1.394571350569e-10       1.342118048902e-11      -6.107297582089e-15 
   32       1.456957570564e-10       3.577153176805e-15       2.642816310255e-13       0.000000000000e+00       1.311424302409e-10       1.269077160724e-11      -6.583317917556e-15 
   33       1.479298963207e-10       3.979572535998e-15       2.658945423580e-13       0.000000000000e+00       1.235187685678e-10       1.201397586698e-11      -7.669234540244e-15 
   34       1.501898901064e-10       4.411668826331e-15       2.664446063308e-13       0.000000000000e+00       1.164793309018e-10       1.137329992979e-11      -8.794651654860e-15 
   35       1.524783737499e-10       4.874296205754e-15       2.657933914213e-13       0.000000000000e+00       1.099880129948e-10       1.077088976347e-11      -9.668653689581e-15 
   36       1.547963934126e-10       5.368300092552e-15       2.637852396315e-13       0.000000000000e+00       1.039926646985e-10       1.021305415835e-11      -1.004900313466e-14 
   37       1.571405226482e-10       5.894479163329e-15       2.602773059298e-13       0.000000000000e+00       9.841517403379e-11       9.703269880072e-12      -9.737947003875e-15 
   38       1.595143212787e-10       6.453605850886e-15       2.552561373350e-13       0.000000000000e+00       9.324109384599e-11       9.239570220055e-12      -8.885793783306e-15 
   39       1.619194936400e-10       7.046406156580e-15       2.487602255520e-13       0.000000000000e+00       8.845397929587e-11       8.815796239117e-12      -7.791303064177e-15 
   40       1.643520669183e-10       7.673549523700e-15       2.408505399059e-13       0.000000000000e+00       8.400812640518e-11       8.421892815705e-12      -6.826507063093e-15 
   41       1.668055548640e-10       8.335667594872e-15       2.315865241915e-13       0.000000000000e+00       7.984448679912e-11       8.046944676693e-12      -6.339244111400e-15 
   42       1.692831044651e-10       9.033426549741e-15       2.209414277948e-13       0.000000000000e+00       7.595077758974e-11       7.690229393987e-12      -6.311218097543e-15 
   43       1.717883113654e-10       9.767472209027e-15       2.088616958123e-13       0.000000000000e+00       7.231664390559e-11       7.353233008963e-12      -6.596594677012e-15 
   44       1.743214826749e-10       1.053840763041e-14       1.952895706230e-13       0.000000000000e+00       6.891562197318e-11       7.036527257165e-12      -7.012344998983e-15 
   45       1.768810248937e-10       1.134678475302e-14       1.801683781925e-13       0.000000000000e+00       6.571458623178e-11       6.739893357788e-12      -7.379165682568e-15 
   46       1.794688845525e-10       1.219308129891e-14       1.634611882141e-13       0.000000000000e+00       6.270848024678e-11       6.462935910950e-12      -7.664239003718e-15 
   47       1.820861695756e-10       1.307771339511e-14       1.451370709436e-13       0.000000000000e+00       5.989378782041e-11       6.204509318880e-12      -7.877245697268e-15 
   48       1.847313439036e-10       1.400103883475e-14       1.251658457069e-13       0.000000000000e+00       5.725805796646e-11       5.962455399414e-12      -8.031040862366e-15 
   49       1.873999946626e-10       1.496335461741e-14       1.035180187654e-13       0.000000000000e+00       5.477924057964e-11       5.733531172574e-12      -8.141846208878e-15 
   50       1.900871422737e-10       1.596489455332e-14       8.016435950707e-14       0.000000000000e+00       5.243232385454e-11       5.514337057541e-12      -8.228411976927e-15 
   51       1.927954501836e-10       1.700582701506e-14       5.507463755288e-14       0.000000000000e+00       5.021291176358e-11       5.304566021747e-12      -8.308788498106e-15 
   52       1.955288411110e-10       1.808625232412e-14       2.821843544799e-14       0.000000000000e+00       4.811889808270e-11       5.104511551247e-12      -8.403010620742e-15 
   53       1.982900383953e-10       1.920620023554e-14      -4.345969022380e-16       0.000000000000e+00       4.614341088227e-11       4.914119783959e-12      -8.534191795337e-15 
   54       2.010804528339e-10       2.036562748144e-14      -3.091482138716e-14       0.000000000000e+00       4.427449180818e-11       4.732964374374e-12      -8.728667835006e-15 
   55       2.039006617812e-10       2.156445311187e-14      -6.324794663869e-14       0.000000000000e+00       4.249874204805e-11       4.560461581977e-12      -9.007201965632e-15 
   56       2.067522450629e-10       2.280268042627e-14      -9.743949443188e-14       0.000000000000e+00       4.081405561239e-11       4.396635690315e-12      -9.355712103414e-15 
   57       2.096362069286e-10       2.408030102955e-14      -1.334866130509e-13       0.000000000000e+00       3.921948750952e-11       4.241499708027e-12      -9.747523412323e-15 
   58       2.125523356230e-10       2.539725872599e-14      -1.713823800208e-13       0.000000000000e+00       3.771140164664e-11       4.094816372066e-12      -1.015146983842e-14 
   59       2.154991132977e-10       2.675344853531e-14      -2.111156964230e-13       0.000000000000e+00       3.628330465708e-11       3.956082371778e-12      -1.053168960883e-14 
   60       2.184736259241e-10       2.814871570876e-14      -2.526711812112e-13       0.000000000000e+00       3.492567972764e-11       3.824512572974e-12      -1.084742073076e-14 
   61       2.214728643285e-10       2.958279047121e-14      -2.960317241045e-13       0.000000000000e+00       3.362862787627e-11       3.699258394188e-12      -1.106239717620e-14 
   62       2.244981723568e-10       3.105507735658e-14      -3.411870529653e-13       0.000000000000e+00       3.239086051125e-11       3.580155904236e-12      -1.117596465070e-14 
   63       2.275516418304e-10       3.256481662534e-14      -3.881269106748e-13       0.000000000000e+00       3.121243965807e-11       3.467118412719e-12      -1.119861798748e-14 
   64       2.306347644884e-10       3.411114140238e-14      -4.368385453405e-13       0.000000000000e+00       3.009207305575e-11       3.359908954170e-12      -1.114311490523e-14 
   65       2.337483860398e-10       3.569307465379e-14      -4.873066889677e-13       0.000000000000e+00       2.902703706233e-11       3.258131941601e-12      -1.102457612962e-14 
   66       2.368926602148e-10       3.730952616354e-14      -5.395135361289e-13       0.000000000000e+00       2.801309956052e-11       3.161224820054e-12      -1.086058551478e-14 
   67       2.400670028169e-10       3.895928951016e-14      -5.934387226347e-13       0.000000000000e+00       2.704444286321e-11       3.068449720149e-12      -1.067129016477e-14 
   68       2.432706806761e-10       4.064115789245e-14      -6.490604061469e-13       0.000000000000e+00       2.611521663418e-11       2.979083189523e-12      -1.047555903162e-14 
   69       2.465048197949e-10       4.235430561749e-14      -7.063588099575e-13       0.000000000000e+00       2.522473437213e-11       2.893048686614e-12      -1.027833104903e-14 
   70       2.497707234318e-10       4.409797883608e-14      -7.653133622544e-13       0.000000000000e+00       2.437319621324e-11       2.810397841689e-12      -1.008087148127e-14 
   71       2.530692440239e-10       4.587138354931e-14      -8.259016644425e-13       0.000000000000e+00       2.356011730876e-11       2.731120496784e-12      -9.884485947939e-15 
   72       2.564007534769e-10       4.767368562484e-14      -8.880994979974e-13       0.000000000000e+00       2.278429241896e-11       2.655141425177e-12      -9.690519739211e-15 
   73       2.597651134540e-10       4.950401081324e-14      -9.518808313176e-13       0.000000000000e+00       2.204376050707e-11       2.582317050872e-12      -9.500357131098e-15 
   74       2.631616456660e-10       5.136144476430e-14      -1.017217826578e-12       0.000000000000e+00       2.133576933317e-11       2.512432168077e-12      -9.315420700720e-15 
   75       2.665891021606e-10       5.324503304338e-14      -1.084080846584e-12       0.000000000000e+00       2.065674004815e-11       2.445196660685e-12      -9.137170641561e-15 
   76       2.700462605616e-10       5.515372677836e-14      -1.152437908496e-12       0.000000000000e+00       2.000315512308e-11       2.380322027720e-12      -8.967019999525e-15 
   77       2.735339007758e-10       5.708620812184e-14      -1.222252914859e-12       0.000000000000e+00       1.937448733600e-11       2.317774321971e-12      -8.806064049662e-15 
   78       2.770531364450e-10       5.904103284292e-14      -1.293487110945e-12       0.000000000000e+00       1.877074305582e-11       2.257561590193e-12      -8.655300096672e-15 
   79       2.806048053520e-10       6.101668079217e-14      -1.366099604847e-12       0.000000000000e+00       1.819157008446e-11       2.199656541589e-12      -8.515704806256e-15 
   80       2.841894525260e-10       6.301155480310e-14      -1.440047362988e-12       0.000000000000e+00       1.763624118447e-11       2.143994903785e-12      -8.388231796267e-15 
   81       2.878073133464e-10       6.502397959356e-14      -1.515285205631e-12       0.000000000000e+00       1.710363760680e-11       2.090473778789e-12      -8.273809227853e-15 
   82       2.914582966483e-10       6.705220066717e-14      -1.591765802393e-12       0.000000000000e+00       1.659223261835e-11       2.038949998961e-12      -8.173337396619e-15 
   83       2.951419678264e-10       6.909438321478e-14      -1.669439667753e-12       0.000000000000e+00       1.610007502973e-11       1.989238482974e-12      -8.087686323767e-15 
   84       2.988578288994e-10       7.114867817567e-14      -1.748255862011e-12       0.000000000000e+00       1.562526312717e-11       1.941158532965e-12      -8.017277663601e-15 
   85       3.026062490553e-10       7.321343541054e-14      -1.828164237521e-12       0.000000000000e+00       1.516749282324e-11       1.894685145692e-12      -7.960756065884e-15 
   86       3.063876581114e-10       7.528702401823e-14      -1.909113558335e-12       0.000000000000e+00       1.472673714883e-11       1.849819887930e-12      -7.916092112898e-15 
   87       3.102022515418e-10       7.736776834779e-14      -1.991050835124e-12       0.000000000000e+00       1.430277055912e-11       1.806544359624e-12      -7.880969162821e-15 
   88       3.140499785725e-10       7.945394802861e-14      -2.073921332543e-12       0.000000000000e+00       1.389516070335e-11       1.764819355584e-12      -7.852773954598e-15 
   89       3.179305302780e-10       8.154379800065e-14      -2.157668576602e-12       0.000000000000e+00       1.350326019454e-11       1.724584027187e-12      -7.828587212811e-15 
   90       3.218433276756e-10       8.363550854456e-14      -2.242234362029e-12       0.000000000000e+00       1.312619837930e-11       1.685755044080e-12      -7.805174252551e-15 
   91       3.257875098221e-10       8.572722531190e-14      -2.327558759638e-12       0.000000000000e+00       1.276287310754e-11       1.648225755874e-12      -7.778975584286e-15 
   92       3.297619219086e-10       8.781704935526e-14      -2.413580123698e-12       0.000000000000e+00       1.241194250230e-11       1.611865353847e-12      -7.746097518734e-15 
   93       3.337654619880e-10       8.990306611119e-14      -2.500235872805e-12       0.000000000000e+00       1.207214317686e-11       1.576550975971e-12      -7.703205752501e-15 
   94       3.377982066651e-10       9.198343726964e-14      -2.587464950852e-12       0.000000000000e+00       1.174331750994e-11       1.542271366260e-12      -7.650380266798e-15 
   95       3.418604334878e-10       9.405632284175e-14      -2.675205751533e-12       0.000000000000e+00       1.142552637482e-11       1.509037328404e-12      -7.588674432953e-15 
   96       3.459522705133e-10       9.611985386013e-14      -2.763395395560e-12       0.000000000000e+00       1.111873275941e-11       1.476849790655e-12      -7.519253249715e-15 
   97       3.500736893260e-10       9.817213280649e-14      -2.851969748644e-12       0.000000000000e+00       1.082279801715e-11       1.445699419742e-12      -7.443396343189e-15 
   98       3.542244980561e-10       1.002112340392e-13      -2.940863439485e-12       0.000000000000e+00       1.053747811781e-11       1.415566234770e-12      -7.362500966781e-15 
   99       3.584043343984e-10       1.022352042210e-13      -3.030009877751e-12       0.000000000000e+00       1.026241989839e-11       1.386419221132e-12      -7.278085001132e-15 
  100       3.626126586300e-10       1.042420627464e-13      -3.119341272070e-12       0.000000000000e+00       9.997157313916e-12       1.358215944418e-12      -7.191789954060e-15 
  101       3.668487466297e-10       1.062298021694e-13      -3.208788648009e-12       0.000000000000e+00       9.741107688330e-12       1.330902164320e-12      -7.105383960500e-15 
  102       3.711116828953e-10       1.081963886312e-13      -3.298281866059e-12       0.000000000000e+00       9.493567965321e-12       1.304411448537e-12      -7.020764782441e-15 
  103       3.754003535633e-10       1.101397622875e-13      -3.387749639626e-12       0.000000000000e+00       9.253710959180e-12       1.278664786691e-12      -6.939962808871e-15 
  104       3.797136780747e-10       1.120578886079e-13      -3.477120131210e-12       0.000000000000e+00       9.020772787076e-12       1.253589188088e-12      -6.864704409116e-15 
  105       3.840513548558e-10       1.139489192432e-13      -3.566322793961e-12       0.000000000000e+00       8.794652076708e-12       1.229177167809e-12      -6.795028355078e-15 
  106       3.884132038217e-10       1.158110537872e-13      -3.655286813579e-12       0.000000000000e+00       8.575385090205e-12       1.205434613950e-12      -6.730487220476e-15 
  107       3.927989324161e-10       1.176424918205e-13      -3.743940576375e-12       0.000000000000e+00       8.362960142528e-12       1.182362345993e-12      -6.670568528176e-15 
