# dimensionless total [l(l+1)/2pi] C_l's
# for l=2 to 3000, i.e. number of multipoles equal to 2999
#
# -> if you prefer output in CAMB/HealPix/LensPix units/order, set 'format' to 'camb' in input file
# -> if you don't want to see such a header, set 'headers' to 'no' in input file
# -> for CMB lensing (phi), these are C_l^phi-phi for the lensing potential.
#    Remember the conversion factors:
#    C_l^dd (deflection) = l(l+1) C_l^phi-phi
#    C_l^gg (shear/convergence) = 1/4 (l(l+1))^2 C_l^phi-phi
#
# 1:l     2:TT                     3:EE                     4:TE                     5:BB                     6:phiphi                 7:TPhi                   8:Ephi               
    2       1.444111454170e-10       4.182430682651e-15       3.772996993848e-13       0.000000000000e+00       8.160663499105e-09       4.447641160570e-10      -1.840567181835e-12 
    3       1.363501735330e-10       5.346452572604e-15       4.222983632379e-13       0.000000000000e+00       5.019335980357e-09       3.157030453548e-10      -1.392105299385e-12 
    4       1.286337291649e-10       4.608708786474e-15       3.933317734519e-13       0.000000000000e+00       3.488451252224e-09       2.390759863999e-10      -9.090219684573e-13 
    5       1.227694006945e-10       3.062961700817e-15       3.330725309009e-13       0.000000000000e+00       2.603548506911e-09       1.887378198636e-10      -5.030382601506e-13 
    6       1.186151276165e-10       1.707226724847e-15       2.661071549000e-13       0.000000000000e+00       2.033698312501e-09       1.533967477372e-10      -2.047851808340e-13 
    7       1.158004594437e-10       9.219642242785e-16       2.067381075648e-13       0.000000000000e+00       1.640820554216e-09       1.274838098933e-10      -1.545074644366e-14 
    8       1.140454332651e-10       5.961115796871e-16       1.612176146455e-13       0.000000000000e+00       1.356213942801e-09       1.078872416028e-10       8.026588307339e-14 
    9       1.130429888716e-10       4.785985246581e-16       1.309255778191e-13       0.000000000000e+00       1.142024363246e-09       9.267600223938e-11       1.060730263527e-13 
   10       1.125998644813e-10       4.070270094385e-16       1.143591352829e-13       0.000000000000e+00       9.759846935582e-10       8.059022303224e-11       8.810825700579e-14 
   11       1.126082563169e-10       3.417748518316e-16       1.084919574911e-13       0.000000000000e+00       8.228857575396e-10       7.120733358556e-11       5.065732914819e-14 
   12       1.129809554828e-10       2.984821423374e-16       1.099539058494e-13       0.000000000000e+00       7.189570534368e-10       6.289612342767e-11       1.102679330793e-14 
   13       1.135832992974e-10       2.872384584567e-16       1.158179130826e-13       0.000000000000e+00       6.336326553769e-10       5.613309279390e-11      -1.885451002417e-14 
   14       1.144359525845e-10       2.996477202216e-16       1.238611933975e-13       0.000000000000e+00       5.626506520480e-10       5.038206092661e-11      -3.463287245437e-14 
   15       1.154633521606e-10       3.243504361871e-16       1.326257545480e-13       0.000000000000e+00       5.029047711303e-10       4.535015958304e-11      -3.716631894556e-14 
   16       1.166251096715e-10       3.594109073160e-16       1.414123689217e-13       0.000000000000e+00       4.521069654820e-10       4.108583500518e-11      -3.026492515617e-14 
   17       1.179243486370e-10       4.104226301399e-16       1.501216802244e-13       0.000000000000e+00       4.085324132315e-10       3.744162023056e-11      -1.918898636904e-14 
   18       1.193338346830e-10       4.825490300777e-16       1.588939669298e-13       0.000000000000e+00       3.707140771662e-10       3.423635941666e-11      -8.830823028080e-15 
   19       1.208558466873e-10       5.760213967727e-16       1.679884667782e-13       0.000000000000e+00       3.380517257137e-10       3.141452595803e-11      -1.718263501692e-15 
   20       1.224483227369e-10       6.888174285044e-16       1.776639013824e-13       0.000000000000e+00       3.092863109392e-10       2.889092940028e-11       5.428455454215e-16 
   21       1.241177632483e-10       8.203149623071e-16       1.878664232332e-13       0.000000000000e+00       2.839657246695e-10       2.666526144499e-11      -1.393785123723e-15 
   22       1.258544166612e-10       9.700696245953e-16       1.983634665931e-13       0.000000000000e+00       2.614838287324e-10       2.472107883498e-11      -5.699892424246e-15 
   23       1.276600577836e-10       1.138334128174e-15       2.088339255838e-13       0.000000000000e+00       2.415313361628e-10       2.299419605302e-11      -1.061459523935e-14 
   24       1.295186502488e-10       1.325397282519e-15       2.188791065946e-13       0.000000000000e+00       2.236468116871e-10       2.139154778742e-11      -1.429692026203e-14 
   25       1.314321544377e-10       1.531365662823e-15       2.281770710424e-13       0.000000000000e+00       2.076195978765e-10       1.992884473736e-11      -1.596989851755e-14 
   26       1.333929661254e-10       1.756523007639e-15       2.364429650723e-13       0.000000000000e+00       1.931593161926e-10       1.863610903659e-11      -1.538277487579e-14 
   27       1.354024592217e-10       2.002895949125e-15       2.436071062694e-13       0.000000000000e+00       1.800925724861e-10       1.748169214678e-11      -1.326114621942e-14 
   28       1.374544246332e-10       2.273044378153e-15       2.496904105400e-13       0.000000000000e+00       1.681942524180e-10       1.640969380868e-11      -1.070790130021e-14 
   29       1.395529835258e-10       2.568470455204e-15       2.547460015366e-13       0.000000000000e+00       1.574035091283e-10       1.541697451935e-11      -8.322118136931e-15 
   30       1.416921007996e-10       2.890343590554e-15       2.588682630646e-13       0.000000000000e+00       1.476042732797e-10       1.451001270971e-11      -6.638175849676e-15 
   31       1.438553300129e-10       3.239744381251e-15       2.621568257664e-13       0.000000000000e+00       1.385964559955e-10       1.368738034737e-11      -6.138392333684e-15 
   32       1.460475260446e-10       3.617469462238e-15       2.645727412349e-13       0.000000000000e+00       1.303335694398e-10       1.294233612563e-11      -6.646387071275e-15 
   33       1.482723992142e-10       4.024135866592e-15       2.660279790142e-13       0.000000000000e+00       1.227572996153e-10       1.225952334582e-11      -7.694017055746e-15 
   34       1.505268850795e-10       4.460339567603e-15       2.664202157543e-13       0.000000000000e+00       1.157617096654e-10       1.161940676801e-11      -8.755877495256e-15 
   35       1.528146404099e-10       4.927071860968e-15       2.656290457088e-13       0.000000000000e+00       1.093108687781e-10       1.101938895701e-11      -9.559611432580e-15 
   36       1.551355482942e-10       5.425443986867e-15       2.635161929309e-13       0.000000000000e+00       1.033527993193e-10       1.045921742725e-11      -9.876045826947e-15 
   37       1.574850769297e-10       5.956518831249e-15       2.599500660410e-13       0.000000000000e+00       9.780973545840e-11       9.936391917402e-12      -9.521376638317e-15 
   38       1.598674004844e-10       6.521108797120e-15       2.548912270777e-13       0.000000000000e+00       9.266735275710e-11       9.450704670513e-12      -8.653853265182e-15 
   39       1.622854336563e-10       7.119906048154e-15       2.483352201201e-13       0.000000000000e+00       8.790940705280e-11       9.000724694338e-12      -7.578922069620e-15 
   40       1.647365751853e-10       7.753530560826e-15       2.402906730416e-13       0.000000000000e+00       8.349060167699e-11       8.582274173972e-12      -6.675921780842e-15 
   41       1.672149197410e-10       8.422552931871e-15       2.307728083291e-13       0.000000000000e+00       7.935236999521e-11       8.189931397771e-12      -6.296079582085e-15 
   42       1.697201585164e-10       9.127583139097e-15       2.197795851447e-13       0.000000000000e+00       7.548249493263e-11       7.822706676280e-12      -6.405133993143e-15 
   43       1.722505965832e-10       9.869202687029e-15       2.073090858557e-13       0.000000000000e+00       7.187063163413e-11       7.479808923555e-12      -6.832376047202e-15 
   44       1.748002263716e-10       1.064793674759e-14       1.933663699085e-13       0.000000000000e+00       6.849041348596e-11       7.158942799839e-12      -7.364828582823e-15 
   45       1.773621930801e-10       1.146426818516e-14       1.779508491972e-13       0.000000000000e+00       6.530885827502e-11       6.857128143474e-12      -7.796235003672e-15 
   46       1.799413451141e-10       1.231869136107e-14       1.610132871486e-13       0.000000000000e+00       6.232094472334e-11       6.573735246562e-12      -8.097590337233e-15 
   47       1.825447725206e-10       1.321166955699e-14       1.424863961310e-13       0.000000000000e+00       5.952320403238e-11       6.308151390246e-12      -8.293188962898e-15 
   48       1.851781139317e-10       1.414361765622e-14       1.222961475418e-13       0.000000000000e+00       5.690329327336e-11       6.058854322608e-12      -8.413845218993e-15 
   49       1.878453887087e-10       1.511490026017e-14       1.003612951995e-13       0.000000000000e+00       5.443933546140e-11       5.823345534858e-12      -8.497275213579e-15 
   50       1.905487918729e-10       1.612581451965e-14       7.660818305741e-14       0.000000000000e+00       5.210650766458e-11       5.598903351669e-12      -8.581262283028e-15 
   51       1.932884027054e-10       1.717653750397e-14       5.102101254457e-14       0.000000000000e+00       4.990044455451e-11       5.385237990369e-12      -8.680080513447e-15 
   52       1.960621069003e-10       1.826716129011e-14       2.360439587943e-14       0.000000000000e+00       4.781904676261e-11       5.182441851344e-12      -8.802331634033e-15 
   53       1.988654612789e-10       1.939770445850e-14      -5.630498816140e-15       0.000000000000e+00       4.585547679174e-11       4.990205215706e-12      -8.957643258533e-15 
   54       2.016915241831e-10       2.056810949018e-14      -3.666570486314e-14       0.000000000000e+00       4.399784017433e-11       4.807788100969e-12      -9.156711102997e-15 
   55       2.045334310087e-10       2.177826947508e-14      -6.948353106637e-14       0.000000000000e+00       4.223281104590e-11       4.634291403922e-12      -9.406693814552e-15 
   56       2.073932586103e-10       2.302812196895e-14      -1.040903976379e-13       0.000000000000e+00       4.055829401596e-11       4.469613683299e-12      -9.695961054512e-15 
   57       2.102750659243e-10       2.431757389352e-14      -1.404984966017e-13       0.000000000000e+00       3.897334930104e-11       4.313682765460e-12      -1.000563045940e-14 
   58       2.131822804715e-10       2.564647283947e-14      -1.787190353809e-13       0.000000000000e+00       3.747436232844e-11       4.166161156717e-12      -1.031374724201e-14 
   59       2.161176357035e-10       2.701460560558e-14      -2.187622792105e-13       0.000000000000e+00       3.605487857286e-11       4.026429559539e-12      -1.059514534207e-14 
   60       2.190831083483e-10       2.842169673803e-14      -2.606375935493e-13       0.000000000000e+00       3.470543839302e-11       3.893570388769e-12      -1.082130857690e-14 
   61       2.220801159695e-10       2.986737446723e-14      -3.043508759410e-13       0.000000000000e+00       3.341620254213e-11       3.766621139959e-12      -1.096708418148e-14 
   62       2.251103032045e-10       3.135106288862e-14      -3.498960820372e-13       0.000000000000e+00       3.218589100618e-11       3.645438242849e-12      -1.103289847548e-14 
   63       2.281748216284e-10       3.287206287840e-14      -3.972618641046e-13       0.000000000000e+00       3.101456662966e-11       3.529998740737e-12      -1.102730404416e-14 
   64       2.312740317934e-10       3.442958011457e-14      -4.464339741152e-13       0.000000000000e+00       2.990094639199e-11       3.420139783883e-12      -1.096064438676e-14 
   65       2.344074488310e-10       3.602272258165e-14      -4.973952233280e-13       0.000000000000e+00       2.884232479007e-11       3.315550707923e-12      -1.084513248819e-14 
   66       2.375736880544e-10       3.765049807553e-14      -5.501254418707e-13       0.000000000000e+00       2.783449722088e-11       3.215765112285e-12      -1.069492939093e-14 
   67       2.407704105610e-10       3.931181170822e-14      -6.046014383207e-13       0.000000000000e+00       2.687168336405e-11       3.120152938603e-12      -1.052622276670e-14 
   68       2.439952916056e-10       4.100555056174e-14      -6.607980671157e-13       0.000000000000e+00       2.594807017050e-11       3.028089652353e-12      -1.035416032883e-14 
   69       2.472492751691e-10       4.273086314584e-14      -7.186917722858e-13       0.000000000000e+00       2.506297514683e-11       2.939521302270e-12      -1.018275288783e-14 
   70       2.505338841590e-10       4.448693234342e-14      -7.782576924642e-13       0.000000000000e+00       2.421659645644e-11       2.854500252231e-12      -1.001305713868e-14 
   71       2.538502282530e-10       4.627289301010e-14      -8.394686047231e-13       0.000000000000e+00       2.340845131803e-11       2.773014877313e-12      -9.846137965778e-15 
   72       2.571989756595e-10       4.808783170785e-14      -9.022949124883e-13       0.000000000000e+00       2.263734081033e-11       2.694986171699e-12      -9.683066575875e-15 
   73       2.605803248777e-10       4.993078643869e-14      -9.667046334539e-13       0.000000000000e+00       2.190131467686e-11       2.620264356589e-12      -9.524918631032e-15 
   74       2.639939764573e-10       5.180074637832e-14      -1.032663387497e-12       0.000000000000e+00       2.119763613063e-11       2.548625488110e-12      -9.372772381520e-15 
   75       2.674391047594e-10       5.369665160980e-14      -1.100134384593e-12       0.000000000000e+00       2.052274665892e-11       2.479768065223e-12      -9.227706798755e-15 
   76       2.709148499758e-10       5.561735774844e-14      -1.169079500751e-12       0.000000000000e+00       1.987314885534e-11       2.413391626096e-12      -9.090587877329e-15 
   77       2.744219601978e-10       5.756152295788e-14      -1.239462759058e-12       0.000000000000e+00       1.924831857582e-11       2.349456582122e-12      -8.961386679292e-15 
   78       2.779613988718e-10       5.952769975119e-14      -1.311247464415e-12       0.000000000000e+00       1.864826235287e-11       2.287965823277e-12      -8.839732962092e-15 
   79       2.815338338166e-10       6.151436730164e-14      -1.384395181885e-12       0.000000000000e+00       1.807263037381e-11       2.228885249935e-12      -8.725109866825e-15 
   80       2.851396196519e-10       6.351993045634e-14      -1.458865746921e-12       0.000000000000e+00       1.752070011039e-11       2.172142062014e-12      -8.616847707396e-15 
   81       2.887787802269e-10       6.554271875000e-14      -1.534617275592e-12       0.000000000000e+00       1.699135994841e-11       2.117623048124e-12      -8.514117759683e-15 
   82       2.924509910487e-10       6.758098541868e-14      -1.611606174805e-12       0.000000000000e+00       1.648309281736e-11       2.065172874722e-12      -8.415926050698e-15 
   83       2.961555617107e-10       6.963290641349e-14      -1.689787152536e-12       0.000000000000e+00       1.599395982005e-11       2.014592375256e-12      -8.321107147748e-15 
   84       2.998917791223e-10       7.169663898457e-14      -1.769112854133e-12       0.000000000000e+00       1.552207115839e-11       1.965687984524e-12      -8.228627438583e-15 
   85       3.036600410641e-10       7.377051075232e-14      -1.849532679571e-12       0.000000000000e+00       1.506712447000e-11       1.918433205404e-12      -8.138566344176e-15 
   86       3.074608792097e-10       7.585286031762e-14      -1.930993787961e-12       0.000000000000e+00       1.462909268666e-11       1.872830897583e-12      -8.051287139283e-15 
   87       3.112946036940e-10       7.794198049315e-14      -2.013441457918e-12       0.000000000000e+00       1.420775135277e-11       1.828863673588e-12      -7.967140929732e-15 
   88       3.151612916064e-10       8.003611831825e-14      -2.096819091499e-12       0.000000000000e+00       1.380267044477e-11       1.786493047524e-12      -7.886465643124e-15 
   89       3.190607754827e-10       8.213347507386e-14      -2.181068218148e-12       0.000000000000e+00       1.341320619063e-11       1.745658583799e-12      -7.809585019517e-15 
   90       3.229926317977e-10       8.423220629741e-14      -2.266128498634e-12       0.000000000000e+00       1.303849288936e-11       1.706277045861e-12      -7.736807602120e-15 
   91       3.269561694574e-10       8.633042179777e-14      -2.351937728994e-12       0.000000000000e+00       1.267743473045e-11       1.668241544932e-12      -7.668425727986e-15 
   92       3.309504182915e-10       8.842618567011e-14      -2.438431844474e-12       0.000000000000e+00       1.232869761337e-11       1.631420688738e-12      -7.604714518699e-15 
   93       3.349744315342e-10       9.051754850799e-14      -2.525545985989e-12       0.000000000000e+00       1.199102547968e-11       1.595690046105e-12      -7.545809436897e-15 
   94       3.390282703015e-10       9.260264954891e-14      -2.613217874421e-12       0.000000000000e+00       1.166426150062e-11       1.561033802995e-12      -7.491320082537e-15 
   95       3.431121465923e-10       9.467962999052e-14      -2.701384953466e-12       0.000000000000e+00       1.134846606588e-11       1.527456892780e-12      -7.440656175178e-15 
   96       3.472261153908e-10       9.674660261307e-14      -2.789983390608e-12       0.000000000000e+00       1.104360227979e-11       1.494953640455e-12      -7.393141172302e-15 
   97       3.513700674700e-10       9.880165223625e-14      -2.878948095648e-12       0.000000000000e+00       1.074953223533e-11       1.463507354964e-12      -7.348009593105e-15 
   98       3.555437221931e-10       1.008428361761e-13      -2.968212739228e-12       0.000000000000e+00       1.046601328812e-11       1.433089921529e-12      -7.304404342276e-15 
   99       3.597466203168e-10       1.028681847019e-13      -3.057709771357e-12       0.000000000000e+00       1.019269433048e-11       1.403661393977e-12      -7.261374033787e-15 
  100       3.639781167933e-10       1.048757014929e-13      -3.147370439941e-12       0.000000000000e+00       9.929112065373e-12       1.375169587067e-12      -7.217870314670e-15 
  101       3.682373735726e-10       1.068633640955e-13      -3.237124809303e-12       0.000000000000e+00       9.674687280473e-12       1.347549668816e-12      -7.172745188810e-15 
  102       3.725233524055e-10       1.088291243797e-13      -3.326901778715e-12       0.000000000000e+00       9.428721122149e-12       1.320723752831e-12      -7.124748340720e-15 
  103       3.768348076455e-10       1.107709089965e-13      -3.416629100921e-12       0.000000000000e+00       9.190391369480e-12       1.294600490628e-12      -7.072524459335e-15 
  104       3.811705442673e-10       1.126866706130e-13      -3.506234023299e-12       0.000000000000e+00       8.958938723484e-12       1.269096883010e-12      -7.014944293193e-15 
  105       3.855302471193e-10       1.145745485173e-13      -3.595645270090e-12       0.000000000000e+00       8.734262359871e-12       1.244207947826e-12      -6.952154511733e-15 
  106       3.899137507942e-10       1.164327306621e-13      -3.684791363721e-12       0.000000000000e+00       8.516398254997e-12       1.219945747098e-12      -6.884665335946e-15 
  107       3.943207801847e-10       1.182594058258e-13      -3.773600051148e-12       0.000000000000e+00       8.305334736613e-12       1.196317846847e-12      -6.813030450584e-15 
