# dimensionless total [l(l+1)/2pi] C_l's
# for l=2 to 3000, i.e. number of multipoles equal to 2999
#
# -> if you prefer output in CAMB/HealPix/LensPix units/order, set 'format' to 'camb' in input file
# -> if you don't want to see such a header, set 'headers' to 'no' in input file
# -> for CMB lensing (phi), these are C_l^phi-phi for the lensing potential.
#    Remember the conversion factors:
#    C_l^dd (deflection) = l(l+1) C_l^phi-phi
#    C_l^gg (shear/convergence) = 1/4 (l(l+1))^2 C_l^phi-phi
#
# 1:l     2:TT                     3:EE                     4:TE                     5:BB                     6:phiphi                 7:TPhi                   8:Ephi               
    2       1.429114353430e-10       4.204297601492e-15       3.809063210044e-13       0.000000000000e+00       8.077197446589e-09       4.345658068433e-10      -1.846469790933e-12 
    3       1.351850551645e-10       5.387910781544e-15       4.250015197618e-13       0.000000000000e+00       5.024380248249e-09       3.097812038653e-10      -1.399962294431e-12 
    4       1.276999004289e-10       4.662804929361e-15       3.956596710180e-13       0.000000000000e+00       3.503650600013e-09       2.346117270661e-10      -9.170135928255e-13 
    5       1.219881216595e-10       3.112265064283e-15       3.351012118018e-13       0.000000000000e+00       2.617646132961e-09       1.851486970743e-10      -5.104341730453e-13 
    6       1.179616223027e-10       1.739960551389e-15       2.678083800444e-13       0.000000000000e+00       2.045473894210e-09       1.505323313161e-10      -2.106565464739e-13 
    7       1.152880780442e-10       9.386136522724e-16       2.080378747156e-13       0.000000000000e+00       1.649596823974e-09       1.251546683270e-10      -1.931874343802e-14 
    8       1.135650807829e-10       6.037774215272e-16       1.621328194073e-13       0.000000000000e+00       1.362306257378e-09       1.059032992935e-10       7.846255977608e-14 
    9       1.126116137649e-10       4.836878172096e-16       1.314787706241e-13       0.000000000000e+00       1.146353203242e-09       9.094405689051e-11       1.060085507586e-13 
   10       1.122420178345e-10       4.118754993712e-16       1.145234311502e-13       0.000000000000e+00       9.797118944334e-10       7.909608202883e-11       8.918866538662e-14 
   11       1.122669060605e-10       3.458093647268e-16       1.083626013200e-13       0.000000000000e+00       8.250459881875e-10       6.975246384616e-11       5.205349718721e-14 
   12       1.126650522484e-10       3.008532716028e-16       1.096815603212e-13       0.000000000000e+00       7.207261029817e-10       6.177593717392e-11       1.250379591729e-14 
   13       1.133135717251e-10       2.880902901145e-16       1.154504052282e-13       0.000000000000e+00       6.351074634781e-10       5.507081708316e-11      -1.796023101502e-14 
   14       1.141522434060e-10       2.995675105393e-16       1.233922198501e-13       0.000000000000e+00       5.638781122568e-10       4.937043829375e-11      -3.449988159600e-14 
   15       1.151932296022e-10       3.235427843522e-16       1.320534530928e-13       0.000000000000e+00       5.039354328466e-10       4.455296989807e-11      -3.750581460699e-14 
   16       1.163772043643e-10       3.575222581424e-16       1.407764587158e-13       0.000000000000e+00       4.529805943779e-10       4.042324880663e-11      -3.089292300081e-14 
   17       1.176959197613e-10       4.069293765757e-16       1.494180086307e-13       0.000000000000e+00       4.092769172563e-10       3.678356332524e-11      -1.997563165037e-14 
   18       1.191198330514e-10       4.771930114671e-16       1.581116111812e-13       0.000000000000e+00       3.713490644735e-10       3.359753109052e-11      -9.516017578243e-15 
   19       1.206510566799e-10       5.687667227234e-16       1.671121377523e-13       0.000000000000e+00       3.385952968140e-10       3.082546693861e-11      -2.100200207656e-15 
   20       1.222498449280e-10       6.797865344524e-16       1.766718255400e-13       0.000000000000e+00       3.097522887173e-10       2.834580269907e-11       5.065226227092e-16 
   21       1.239253614558e-10       8.095068058856e-16       1.867549426931e-13       0.000000000000e+00       2.843660229616e-10       2.615623107053e-11      -1.139785489168e-15 
   22       1.256706084832e-10       9.572651755997e-16       1.971571940425e-13       0.000000000000e+00       2.618279947703e-10       2.425185271176e-11      -5.282033825399e-15 
   23       1.274867658950e-10       1.123311979427e-15       2.075726285665e-13       0.000000000000e+00       2.418273669405e-10       2.258020352604e-11      -1.014318115227e-14 
   24       1.293553397408e-10       1.307995824836e-15       2.176108391426e-13       0.000000000000e+00       2.239008296130e-10       2.105179272087e-11      -1.384602776340e-14 
   25       1.312733106296e-10       1.511396697251e-15       2.269425206435e-13       0.000000000000e+00       2.078372036151e-10       1.963853543347e-11      -1.566848406330e-14 
   26       1.332291984585e-10       1.733732325452e-15       2.352668722397e-13       0.000000000000e+00       1.933456045763e-10       1.832445586243e-11      -1.540008509604e-14 
   27       1.352326059837e-10       1.976941569833e-15       2.424948296188e-13       0.000000000000e+00       1.802520657483e-10       1.712901879578e-11      -1.356405909086e-14 
   28       1.372884494199e-10       2.243499217639e-15       2.486266841315e-13       0.000000000000e+00       1.683306407677e-10       1.607088633017e-11      -1.101571999664e-14 
   29       1.394000064828e-10       2.534913951995e-15       2.537079077322e-13       0.000000000000e+00       1.575200196935e-10       1.513636907990e-11      -8.421044735699e-15 
   30       1.415556652995e-10       2.852402396859e-15       2.578292785459e-13       0.000000000000e+00       1.477034969604e-10       1.428725771907e-11      -6.515544536538e-15 
   31       1.437333638517e-10       3.197101557633e-15       2.610930778834e-13       0.000000000000e+00       1.386801680332e-10       1.347872323772e-11      -5.978932029540e-15 
   32       1.459384047503e-10       3.569835435190e-15       2.634899963690e-13       0.000000000000e+00       1.304033648266e-10       1.271322431912e-11      -6.601046302458e-15 
   33       1.481772204544e-10       3.971244419160e-15       2.649767053796e-13       0.000000000000e+00       1.228146875275e-10       1.200559193077e-11      -7.789229806845e-15 
   34       1.504486344781e-10       4.401950051065e-15       2.654883028400e-13       0.000000000000e+00       1.158080382137e-10       1.136568021513e-11      -8.898263197263e-15 
   35       1.527518352423e-10       4.862957340993e-15       2.648729239672e-13       0.000000000000e+00       1.093474361552e-10       1.078764908256e-11      -9.677195786564e-15 
   36       1.550793698065e-10       5.355388686445e-15       2.629310445811e-13       0.000000000000e+00       1.033808290180e-10       1.025598611542e-11      -9.971238820131e-15 
   37       1.574204651393e-10       5.880298277006e-15       2.594743061103e-13       0.000000000000e+00       9.783032030701e-11       9.753175486917e-12      -9.664600933178e-15 
   38       1.597830974932e-10       6.438397921313e-15       2.544763647732e-13       0.000000000000e+00       9.268148543537e-11       9.278494475653e-12      -8.892483300109e-15 
   39       1.621781119624e-10       7.030233549411e-15       2.479720343204e-13       0.000000000000e+00       8.791794273639e-11       8.834875690978e-12      -7.902778396588e-15 
   40       1.646127265528e-10       7.656250268766e-15       2.400186726095e-13       0.000000000000e+00       8.349419097995e-11       8.423666246003e-12      -7.004392647438e-15 
   41       1.670898907141e-10       8.316880351525e-15       2.306751927968e-13       0.000000000000e+00       7.935144636625e-11       8.044470399879e-12      -6.489395141288e-15 
   42       1.696072173627e-10       9.012857279900e-15       2.199275586960e-13       0.000000000000e+00       7.547745900798e-11       7.695008597434e-12      -6.359499265557e-15 
   43       1.721569277098e-10       9.744992985896e-15       2.077413607358e-13       0.000000000000e+00       7.186189415484e-11       7.370937571064e-12      -6.517182348392e-15 
   44       1.747255374477e-10       1.051409217585e-14       1.940819391680e-13       0.000000000000e+00       6.847838319535e-11       7.065680386216e-12      -6.838150045297e-15 
   45       1.772991901619e-10       1.132088549489e-14       1.789125334193e-13       0.000000000000e+00       6.529393050866e-11       6.772375997183e-12      -7.196611962288e-15 
   46       1.798826738753e-10       1.216580525051e-14       1.621884484625e-13       0.000000000000e+00       6.230349470190e-11       6.490806788027e-12      -7.554088428723e-15 
   47       1.824852849012e-10       1.304914259769e-14       1.438608715018e-13       0.000000000000e+00       5.950357514057e-11       6.222265014997e-12      -7.894288434555e-15 
   48       1.851153797568e-10       1.397110475737e-14       1.238781596776e-13       0.000000000000e+00       5.688178287135e-11       5.967580004066e-12      -8.198326459998e-15 
   49       1.877802364444e-10       1.493181114440e-14       1.021855822832e-13       0.000000000000e+00       5.441617978478e-11       5.727076921037e-12      -8.444590850553e-15 
   50       1.904850205159e-10       1.593133945545e-14       7.873252096588e-14       0.000000000000e+00       5.208188036304e-11       5.500648271756e-12      -8.616691472076e-15 
   51       1.932296742287e-10       1.696988766449e-14       5.349697244740e-14       0.000000000000e+00       4.987450262477e-11       5.288086936160e-12      -8.730151295540e-15 
   52       1.960109432038e-10       1.804764930597e-14       2.646725119635e-14       0.000000000000e+00       4.779194037632e-11       5.088772264163e-12      -8.812732419396e-15 
   53       1.988230212869e-10       1.916476587290e-14      -2.364796283804e-15       0.000000000000e+00       4.582734547657e-11       4.901530173766e-12      -8.897232698312e-15 
   54       2.016573697027e-10       2.032132529575e-14      -3.300369827367e-14       0.000000000000e+00       4.396880876830e-11       4.724597226119e-12      -9.021734319609e-15 
   55       2.045056848581e-10       2.151736977518e-14      -6.545174243056e-14       0.000000000000e+00       4.220298898380e-11       4.556109066173e-12      -9.218970652374e-15 
   56       2.073700794148e-10       2.275292504337e-14      -9.971374582594e-14       0.000000000000e+00       4.052778610053e-11       4.395790137272e-12      -9.480764048516e-15 
   57       2.102551136474e-10       2.402797570755e-14      -1.357933066738e-13       0.000000000000e+00       3.894225744543e-11       4.243620802575e-12      -9.785189029196e-15 
   58       2.131648114829e-10       2.534245540167e-14      -1.736913955475e-13       0.000000000000e+00       3.744278390375e-11       4.099334598535e-12      -1.010650842502e-14 
   59       2.161026023286e-10       2.669624562977e-14      -2.134063197740e-13       0.000000000000e+00       3.602290466776e-11       3.962402739773e-12      -1.041499798906e-14 
   60       2.190712629012e-10       2.808917460933e-14      -2.549336878289e-13       0.000000000000e+00       3.467315198523e-11       3.832018623968e-12      -1.067677100992e-14 
   61       2.220728980363e-10       2.952095326970e-14      -2.982669453081e-13       0.000000000000e+00       3.338367792546e-11       3.707331286258e-12      -1.086124532748e-14 
   62       2.251090096837e-10       3.099096907681e-14      -3.433992039767e-13       0.000000000000e+00       3.215319751236e-11       3.588242050917e-12      -1.096589971873e-14 
   63       2.281803402431e-10       3.249844366712e-14      -3.903217619555e-13       0.000000000000e+00       3.098176886758e-11       3.474760014132e-12      -1.099678841024e-14 
   64       2.312867791437e-10       3.404248852063e-14      -4.390235512481e-13       0.000000000000e+00       2.986810318396e-11       3.366761427957e-12      -1.096145479292e-14 
   65       2.344273059094e-10       3.562210181022e-14      -4.894911202709e-13       0.000000000000e+00       2.880948806276e-11       3.263982104176e-12      -1.086899852272e-14 
   66       2.375999332244e-10       3.723616525101e-14      -5.417086163838e-13       0.000000000000e+00       2.780171085083e-11       3.166009818167e-12      -1.073014262130e-14 
   67       2.408016499992e-10       3.888344094968e-14      -5.956577684201e-13       0.000000000000e+00       2.683898197780e-11       3.072276712768e-12      -1.055730057677e-14 
   68       2.440295498448e-10       4.056269593822e-14      -6.513183167937e-13       0.000000000000e+00       2.591547961892e-11       2.982210686920e-12      -1.036273604064e-14 
   69       2.472846092860e-10       4.227311211974e-14      -7.086694440725e-13       0.000000000000e+00       2.503051849767e-11       2.895742162069e-12      -1.015245891643e-14 
   70       2.505685763516e-10       4.401395411017e-14      -7.676886042250e-13       0.000000000000e+00       2.418429551033e-11       2.812886825750e-12      -9.931207317844e-15 
   71       2.538828267628e-10       4.578444901635e-14      -8.283510947773e-13       0.000000000000e+00       2.337632650250e-11       2.733592265513e-12      -9.704263529389e-15 
   72       2.572283373154e-10       4.758378655097e-14      -8.906300507896e-13       0.000000000000e+00       2.260541107239e-11       2.657734438895e-12      -9.477472324357e-15 
   73       2.606056592634e-10       4.941111914749e-14      -9.544964388342e-13       0.000000000000e+00       2.186959737410e-11       2.585114143389e-12      -9.257259282830e-15 
   74       2.640148917014e-10       5.126556207511e-14      -1.019919050972e-12       0.000000000000e+00       2.116614692101e-11       2.515453486418e-12      -9.050649109673e-15 
   75       2.674556549482e-10       5.314619355364e-14      -1.086864498731e-12       0.000000000000e+00       2.049149938906e-11       2.448392355303e-12      -8.865283952525e-15 
   76       2.709274947716e-10       5.505199381452e-14      -1.155297500376e-12       0.000000000000e+00       1.984215557037e-11       2.383581008608e-12      -8.707627601949e-15 
   77       2.744312390043e-10       5.698164920042e-14      -1.225181816518e-12       0.000000000000e+00       1.921758992236e-11       2.320985146323e-12      -8.577159536352e-15 
   78       2.779678411050e-10       5.893371238508e-14      -1.296479474966e-12       0.000000000000e+00       1.861780765829e-11       2.260630315810e-12      -8.471150494319e-15 
   79       2.815379537680e-10       6.090665913946e-14      -1.369150492567e-12       0.000000000000e+00       1.804245761009e-11       2.202509191916e-12      -8.386364090610e-15 
   80       2.851419111408e-10       6.289888719473e-14      -1.443152875189e-12       0.000000000000e+00       1.749081585904e-11       2.146580017989e-12      -8.319037934193e-15 
   81       2.887797110417e-10       6.490871510521e-14      -1.518442617721e-12       0.000000000000e+00       1.696176936651e-11       2.092765046898e-12      -8.264864746283e-15 
   82       2.924509971780e-10       6.693438111136e-14      -1.594973704059e-12       0.000000000000e+00       1.645379960469e-11       2.040948982046e-12      -8.218973478381e-15 
   83       2.961550413632e-10       6.897404200274e-14      -1.672698107097e-12       0.000000000000e+00       1.596496618737e-11       1.990977418391e-12      -8.175910430309e-15 
   84       2.998910809030e-10       7.102584217699e-14      -1.751566206942e-12       0.000000000000e+00       1.549337800379e-11       1.942695981004e-12      -8.130716800056e-15 
   85       3.036594339695e-10       7.308813646160e-14      -1.831528125207e-12       0.000000000000e+00       1.503873221673e-11       1.896078610623e-12      -8.082407941387e-15 
   86       3.074605373888e-10       7.515930231830e-14      -1.912532612928e-12       0.000000000000e+00       1.460100157175e-11       1.851117785690e-12      -8.031038956073e-15 
   87       3.112945962748e-10       7.723767297349e-14      -1.994526658929e-12       0.000000000000e+00       1.417996152280e-11       1.807784853598e-12      -7.976659097213e-15 
   88       3.151615722158e-10       7.932153746100e-14      -2.077455496841e-12       0.000000000000e+00       1.377518205632e-11       1.766029155699e-12      -7.919311314698e-15 
   89       3.190611714613e-10       8.140914066475e-14      -2.161262612124e-12       0.000000000000e+00       1.338601951530e-11       1.725777152317e-12      -7.859031800674e-15 
   90       3.229928331092e-10       8.349868336155e-14      -2.245889749085e-12       0.000000000000e+00       1.301160842331e-11       1.686931547754e-12      -7.795849535004e-15 
   91       3.269557172927e-10       8.558832226383e-14      -2.331276917904e-12       0.000000000000e+00       1.265085330863e-11       1.649370415301e-12      -7.729785830732e-15 
   92       3.309486933671e-10       8.767617006234e-14      -2.417362401646e-12       0.000000000000e+00       1.230242052826e-11       1.612946322250e-12      -7.660853879544e-15 
   93       3.349706834918e-10       8.976032293112e-14      -2.504083566265e-12       0.000000000000e+00       1.196505438578e-11       1.577522491720e-12      -7.589132483737e-15 
   94       3.390217781448e-10       9.183894768162e-14      -2.591379414698e-12       0.000000000000e+00       1.163859762927e-11       1.543089410050e-12      -7.515000924455e-15 
   95       3.431022673215e-10       9.391020785655e-14      -2.679188431668e-12       0.000000000000e+00       1.132311003403e-11       1.509664221004e-12      -7.438938741626e-15 
   96       3.472122932464e-10       9.597223784974e-14      -2.767447832742e-12       0.000000000000e+00       1.101855410993e-11       1.477254889917e-12      -7.361455251162e-15 
   97       3.513518434389e-10       9.802314332577e-14      -2.856093582372e-12       0.000000000000e+00       1.072479137700e-11       1.445859837108e-12      -7.283090108774e-15 
   98       3.555207437784e-10       1.000610016397e-13      -2.945060411937e-12       0.000000000000e+00       1.044157864105e-11       1.415467571281e-12      -7.204413873775e-15 
   99       3.597186515702e-10       1.020838622569e-13      -3.034281837783e-12       0.000000000000e+00       1.016856426921e-11       1.386056322941e-12      -7.126028572894e-15 
  100       3.639450486101e-10       1.040897471725e-13      -3.123690179273e-12       0.000000000000e+00       9.905284465586e-12       1.357593677797e-12      -7.048568264081e-15 
  101       3.681992342506e-10       1.060766513313e-13      -3.213216576822e-12       0.000000000000e+00       9.651159546794e-12       1.330036210171e-12      -6.972699600317e-15 
  102       3.724803184657e-10       1.080425430475e-13      -3.302791009944e-12       0.000000000000e+00       9.405490217591e-12       1.303329116405e-12      -6.899122393424e-15 
  103       3.767872149165e-10       1.099853644240e-13      -3.392342315294e-12       0.000000000000e+00       9.167453846452e-12       1.277405848273e-12      -6.828570177873e-15 
  104       3.811188663354e-10       1.119030829726e-13      -3.481798765603e-12       0.000000000000e+00       8.936290786574e-12       1.252203561793e-12      -6.761635920191e-15 
  105       3.854749702891e-10       1.137938535091e-13      -3.571089856691e-12       0.000000000000e+00       8.711900025451e-12       1.227712630007e-12      -6.698221118891e-15 
  106       3.898553389838e-10       1.156558790122e-13      -3.660144796615e-12       0.000000000000e+00       8.494317430097e-12       1.203933166359e-12      -6.638012990630e-15 
  107       3.942596713725e-10       1.174873623464e-13      -3.748891990246e-12       0.000000000000e+00       8.283531270657e-12       1.180859616092e-12      -6.580651337853e-15 
