# dimensionless total lensed [l(l+1)/2pi] C_l's
# for l=2 to 2500, i.e. number of multipoles equal to 2499
#
# -> if you prefer output in CAMB/HealPix/LensPix units/order, set 'format' to 'camb' in input file
# -> if you don't want to see such a header, set 'headers' to 'no' in input file
# -> for CMB lensing (phi), these are C_l^phi-phi for the lensing potential.
#    Remember the conversion factors:
#    C_l^dd (deflection) = l(l+1) C_l^phi-phi
#    C_l^gg (shear/convergence) = 1/4 (l(l+1))^2 C_l^phi-phi
#
# 1:l     2:TT                     3:EE                     4:TE                     5:BB                     6:phiphi                 7:TPhi                   8:Ephi               
    2       1.422967419645e-10       4.161620661301e-15       3.794078879488e-13       2.266419234364e-19       8.228218992953e-09       4.314493099412e-10      -1.840036626868e-12 
    3       1.347237451037e-10       5.343451827227e-15       4.237224733785e-13       4.533776197980e-19       5.062599749298e-09       3.069466788066e-10      -1.394925422007e-12 
    4       1.273649210045e-10       4.632016266464e-15       3.945142490378e-13       7.558358763546e-19       3.517628197127e-09       2.326919904723e-10      -9.149022429585e-13 
    5       1.217335677154e-10       3.097329777616e-15       3.342151923125e-13       1.134136561464e-18       2.624636935219e-09       1.838317074010e-10      -5.103150437585e-13 
    6       1.177682470439e-10       1.735216922267e-15       2.672126188678e-13       1.588425193424e-18       2.049780219349e-09       1.495298117394e-10      -2.117232533198e-13 
    7       1.150880061527e-10       9.376737916916e-16       2.077123870432e-13       2.118870255596e-18       1.653542511681e-09       1.243404212975e-10      -2.077148357919e-14 
    8       1.134130321365e-10       6.038440059037e-16       1.619863952157e-13       2.725660158791e-18       1.366636909636e-09       1.052387315145e-10       7.719289946771e-14 
    9       1.124929933214e-10       4.847099231906e-16       1.314038510182e-13       3.408999940453e-18       1.150811998771e-09       9.041588722699e-11       1.052103569549e-13 
   10       1.121014036850e-10       4.143977182856e-16       1.145185306782e-13       4.169107796454e-18       9.835388975170e-10       7.867109488951e-11       8.889924012091e-14 
   11       1.121735004112e-10       3.498790383543e-16       1.084139291893e-13       5.006211544372e-18       8.285451408062e-10       6.949712500837e-11       5.221815285152e-14 
   12       1.125610734931e-10       3.061732463234e-16       1.097345398853e-13       5.920545116666e-18       7.238383764202e-10       6.141313334349e-11       1.272558127319e-14 
   13       1.132110746963e-10       2.945223605849e-16       1.154928675254e-13       6.912345178344e-18       6.378940330393e-10       5.486432865351e-11      -1.755104630405e-14 
   14       1.140702075458e-10       3.073187844746e-16       1.234446187452e-13       7.981847956752e-18       5.663977829618e-10       4.914335481084e-11      -3.426723203135e-14 
   15       1.151276954922e-10       3.328074863372e-16       1.321915983677e-13       9.129286361132e-18       5.062237348565e-10       4.434475642751e-11      -3.748913282391e-14 
   16       1.163111622353e-10       3.682790042142e-16       1.409758658615e-13       1.035488745717e-17       4.550680955084e-10       4.021599018767e-11      -3.107591647273e-14 
   17       1.176400779796e-10       4.192315846592e-16       1.495838693143e-13       1.165887034729e-17       4.111906129338e-10       3.661634693376e-11      -2.016413885386e-14 
   18       1.190531607108e-10       4.911562348580e-16       1.583093616627e-13       1.304144431550e-17       3.731117676488e-10       3.347343588099e-11      -9.646178850289e-15 
   19       1.205613703007e-10       5.844307493427e-16       1.673859760095e-13       1.450280848611e-17       3.402268280707e-10       3.074455771724e-11      -2.158304088866e-15 
   20       1.221535403183e-10       6.971017641233e-16       1.769698634801e-13       1.604314910904e-17       3.112665357195e-10       2.832644281616e-11       5.407000171331e-16 
   21       1.238325302297e-10       8.285391578081e-16       1.870589178238e-13       1.766264197196e-17       2.857753238802e-10       2.617439118138e-11      -1.023699552534e-15 
   22       1.255740153248e-10       9.782572458463e-16       1.975161118385e-13       1.936144942579e-17       2.631429319936e-10       2.423073926711e-11      -5.143446739336e-15 
   23       1.273808359996e-10       1.146487139530e-15       2.079913615437e-13       2.113972419827e-17       2.430578071512e-10       2.248518284141e-11      -1.008573755778e-14 
   24       1.292432231339e-10       1.333487343506e-15       2.180252546171e-13       2.299760636742e-17       2.250551833915e-10       2.092112540999e-11      -1.398896284695e-14 
   25       1.311649624813e-10       1.539289325476e-15       2.273325310557e-13       2.493522881990e-17       2.089229773700e-10       1.952271279242e-11      -1.600008194291e-14 
   26       1.331373053240e-10       1.764087000089e-15       2.356823172735e-13       2.695271360144e-17       1.943688628995e-10       1.825978243845e-11      -1.575374838687e-14 
   27       1.351529269474e-10       2.009875318393e-15       2.429526889235e-13       2.905017716331e-17       1.812179736602e-10       1.711274625455e-11      -1.384660887906e-14 
   28       1.371962975457e-10       2.279200659889e-15       2.490868867263e-13       3.122772786929e-17       1.692433071280e-10       1.605846052895e-11      -1.126892014405e-14 
   29       1.392766474790e-10       2.573548529117e-15       2.541504732944e-13       3.348547455604e-17       1.583835749393e-10       1.509531709229e-11      -8.678823150174e-15 
   30       1.413996603987e-10       2.894071820844e-15       2.582869142312e-13       3.582351939204e-17       1.485220371954e-10       1.422020506024e-11      -6.749941257012e-15 
   31       1.435603041669e-10       3.241861523306e-15       2.616447668085e-13       3.824195785229e-17       1.394573675161e-10       1.342170112781e-11      -6.107661154817e-15 
   32       1.457613419207e-10       3.617840649414e-15       2.641812072942e-13       4.074088951844e-17       1.311426492250e-10       1.269122867622e-11      -6.583696597094e-15 
   33       1.479990231547e-10       4.022817207901e-15       2.657841408332e-13       4.332041111762e-17       1.235189751607e-10       1.201439778363e-11      -7.669604391001e-15 
   34       1.502626529125e-10       4.457546422660e-15       2.663237462186e-13       4.598061522665e-17       1.164795260637e-10       1.137373843808e-11      -8.795001731935e-15 
   35       1.525548625306e-10       4.922881633704e-15       2.656615577121e-13       4.872159562087e-17       1.099881976219e-10       1.077137772558e-11      -9.668988219275e-15 
   36       1.548766838780e-10       5.419667230784e-15       2.636418546066e-13       5.154344391126e-17       1.039928395775e-10       1.021358723912e-11      -1.004934482071e-14 
   37       1.572246752946e-10       5.948700822837e-15       2.601217389655e-13       5.444624774103e-17       9.841533980012e-11       9.703807985643e-12      -9.738333974347e-15 
   38       1.596023889498e-10       6.510754072807e-15       2.550877929840e-13       5.743008906958e-17       9.324125111314e-11       9.240074822616e-12      -8.886252896975e-15 
   39       1.620115232208e-10       7.106552281898e-15       2.485785797365e-13       6.049504545254e-17       8.845412866113e-11       8.816243593718e-12      -7.791838827324e-15 
   40       1.644480987099e-10       7.736764174571e-15       2.406551564106e-13       6.364119058085e-17       8.400826840479e-11       8.422277904932e-12      -6.827096450448e-15 
   41       1.669056230422e-10       8.402020647407e-15       2.313770537613e-13       6.686859149625e-17       7.984462188658e-11       8.047280611420e-12      -6.339839594895e-15 
   42       1.693872413044e-10       9.102987074335e-15       2.207175458828e-13       7.017729900075e-17       7.595090620205e-11       7.690530775492e-12      -6.311779303673e-15 
   43       1.718965488614e-10       9.840308434996e-15       2.086230833516e-13       7.356735422779e-17       7.231676646346e-11       7.353510548183e-12      -6.597100180859e-15 
   44       1.744338531914e-10       1.061458692044e-14       1.950359111683e-13       7.703879108618e-17       6.891573885462e-11       7.036786680524e-12      -7.012796638339e-15 
   45       1.769975615491e-10       1.142637351175e-14       1.798993701005e-13       8.059163258884e-17       6.571469776102e-11       6.740135552335e-12      -7.379587044909e-15 
   46       1.795896206353e-10       1.227614465877e-14       1.631766079699e-13       8.422587885303e-17       6.270858674013e-11       6.463161393017e-12      -7.664653747916e-15 
   47       1.822111387092e-10       1.316431505956e-14       1.448368001502e-13       8.794151527960e-17       5.989388958860e-11       6.204719553563e-12      -7.877670449648e-15 
   48       1.848605805102e-10       1.409124097926e-14       1.248498846659e-13       9.173851544407e-17       5.725815529991e-11       5.962652929199e-12      -8.031483583195e-15 
   49       1.875335344498e-10       1.505721778738e-14       1.031865006561e-13       9.561684075612e-17       5.477933373255e-11       5.733719751837e-12      -8.142304465758e-15 
   50       1.902250214762e-10       1.606247755630e-14       7.981755152329e-14       9.957644003262e-17       5.243241304007e-11       5.514521272969e-12      -8.228874013582e-15 
   51       1.929377006172e-10       1.710718680144e-14       5.471289734725e-14       1.036172488704e-16       5.021299718836e-11       5.304749192369e-12      -8.309243799849e-15 
   52       1.956754883175e-10       1.819144387081e-14       2.784220117398e-14       1.077391895146e-16       4.811897995073e-11       5.104694892037e-12      -8.403453400114e-15 
   53       1.984411009209e-10       1.931527642889e-14      -8.248040073453e-16       1.119421705937e-16       4.614348938714e-11       4.914302030438e-12      -8.534621856381e-15 
   54       2.012359414711e-10       2.047863899679e-14      -3.131839446165e-14       1.162260867749e-16       4.427456712472e-11       4.733141388628e-12      -8.729091480371e-15 
   55       2.040605809211e-10       2.168144833430e-14      -6.366418736596e-14       1.205908264966e-16       4.249881432993e-11       4.560626855008e-12      -9.007630974758e-15 
   56       2.069166010806e-10       2.292370551398e-14      -9.786759628654e-14       1.250362982056e-16       4.081412501022e-11       4.396783836769e-12      -9.356156264648e-15 
   57       2.098050112187e-10       2.420539986433e-14      -1.339256528288e-13       1.295624100339e-16       3.921955417263e-11       4.241627679360e-12      -9.747987974790e-15 
   58       2.127256056867e-10       2.552647282105e-14      -1.718313123777e-13       1.341690622639e-16       3.771146571855e-11       4.094923836593e-12      -1.015195476211e-14 
   59       2.156768738773e-10       2.688681694162e-14      -2.115733483259e-13       1.388561472979e-16       3.628336627077e-11       3.956172111776e-12      -1.053218878072e-14 
   60       2.186559101843e-10       2.828627491980e-14      -2.531362463019e-13       1.436235496283e-16       3.492573900046e-11       3.824590898853e-12      -1.084792114693e-14 
   61       2.216597120209e-10       2.972457439562e-14      -2.965027606923e-13       1.484711609610e-16       3.362868490931e-11       3.699334626834e-12      -1.106287998246e-14 
   62       2.246896180371e-10       3.120111751529e-14      -3.416624940570e-13       1.533989296179e-16       3.239091540370e-11       3.580238778893e-12      -1.117641232314e-14 
   63       2.277477108631e-10       3.271514217211e-14      -3.886050645257e-13       1.584068222207e-16       3.121249250941e-11       3.467214897468e-12      -1.119901669726e-14 
   64       2.308354718703e-10       3.426577908027e-14      -4.373175925583e-13       1.634948099582e-16       3.009212396348e-11       3.360023943518e-12      -1.114345513800e-14 
   65       2.339537351726e-10       3.585204875220e-14      -4.877846796453e-13       1.686628690372e-16       2.902708611959e-11       3.258267937019e-12      -1.102485333100e-14 
   66       2.371026416280e-10       3.747285847605e-14      -5.399883870088e-13       1.739109811337e-16       2.801314685355e-11       3.161381597466e-12      -1.086080076193e-14 
   67       2.402815928407e-10       3.912699929304e-14      -5.939082143033e-13       1.792391338433e-16       2.704448846865e-11       3.068623984371e-12      -1.067145086401e-14 
   68       2.434898423488e-10       4.081326199170e-14      -6.495221802451e-13       1.846473293753e-16       2.611526061905e-11       2.979268916177e-12      -1.047567815206e-14 
   69       2.467285111148e-10       4.253081913971e-14      -7.068103663771e-13       1.901356116730e-16       2.522477680235e-11       2.893239717375e-12      -1.027842156167e-14 
   70       2.499988996693e-10       4.427891538751e-14      -7.657520564008e-13       1.957040456236e-16       2.437323715511e-11       2.810588661441e-12      -1.008094466350e-14 
   71       2.533018578893e-10       4.605675532161e-14      -8.263247045400e-13       2.013527099516e-16       2.356015682779e-11       2.731306355425e-12      -9.884551080247e-15 
   72       2.566377552955e-10       4.786350348588e-14      -8.885039424250e-13       2.070816978801e-16       2.278433057863e-11       2.655318464299e-12      -9.690583789900e-15 
   73       2.600064513509e-10       4.969828440288e-14      -9.522635859746e-13       2.128911177931e-16       2.204379736752e-11       2.582482435305e-12      -9.500424428922e-15 
   74       2.634072657582e-10       5.156018259516e-14      -1.017575642280e-12       2.187810938964e-16       2.133580494987e-11       2.512584222298e-12      -9.315492595484e-15 
   75       2.668389487580e-10       5.344824260660e-14      -1.084410316488e-12       2.247517668800e-16       2.065677447047e-11       2.445335010094e-12      -9.137245152677e-15 
   76       2.703002762997e-10       5.536141463172e-14      -1.152735463967e-12       2.308032877370e-16       2.000318839445e-11       2.380447491320e-12      -8.967092271220e-15 
   77       2.737920265100e-10       5.729837991016e-14      -1.222514816267e-12       2.369357964595e-16       1.937451949901e-11       2.317887996160e-12      -8.806129422612e-15 
   78       2.773153113551e-10       5.925769338284e-14      -1.293709442657e-12       2.431494406418e-16       1.877077415318e-11       2.257664602092e-12      -8.655355020664e-15 
   79       2.808709671261e-10       6.123783418293e-14      -1.366278271720e-12       2.494443824913e-16       1.819160015838e-11       2.199750042432e-12      -8.515746981140e-15 
   80       2.844595375507e-10       6.323720454182e-14      -1.440178086868e-12       2.558207993497e-16       1.763627027607e-11       2.144080061966e-12      -8.388260317645e-15 
   81       2.880812569044e-10       6.525412869509e-14      -1.515363521842e-12       2.622788842142e-16       1.710366575537e-11       2.090551772590e-12      -8.273824737520e-15 
   82       2.917360331221e-10       6.728685178844e-14      -1.591787056226e-12       2.688188462594e-16       1.659225986074e-11       2.039022008941e-12      -8.173342237738e-15 
   83       2.954234309097e-10       6.933353878370e-14      -1.669399010955e-12       2.754409113581e-16       1.610010139959e-11       1.989305684033e-12      -8.087684700792e-15 
   84       2.991429509115e-10       7.139234047950e-14      -1.748148261237e-12       2.821453188860e-16       1.562528865499e-11       1.941222066682e-12      -8.017275326560e-15 
   85       3.028949573836e-10       7.346160654532e-14      -1.827984520981e-12       2.889323103835e-16       1.516751753903e-11       1.894746030462e-12      -7.960758466749e-15 
   86       3.066798740596e-10       7.553970596233e-14      -1.908856430607e-12       2.958021399611e-16       1.472676108252e-11       1.849878980342e-12      -7.916103844091e-15 
   87       3.104978900314e-10       7.762496308212e-14      -1.990710880750e-12       3.027550783022e-16       1.430279374022e-11       1.806602333659e-12      -7.880993850300e-15 
   88       3.143489478354e-10       7.971565766063e-14      -2.073493019829e-12       3.097914131211e-16       1.389518316056e-11       1.764876681160e-12      -7.852814147610e-15 
   89       3.182327315404e-10       8.181002489210e-14      -2.157146261612e-12       3.169114496229e-16       1.350328195543e-11       1.724640948048e-12      -7.828644270311e-15 
   90       3.221486548346e-10       8.390625544304e-14      -2.241612292779e-12       3.241155109616e-16       1.312621946987e-11       1.685811555024e-12      -7.805248226298e-15 
   91       3.260958491126e-10       8.600249548611e-14      -2.326831080492e-12       3.314039386996e-16       1.276289355185e-11       1.648281579331e-12      -7.779065098599e-15 
   92       3.300731515627e-10       8.809684673412e-14      -2.412740879957e-12       3.387770932663e-16       1.241196232200e-11       1.611919915795e-12      -7.746199646925e-15 
   93       3.340794525388e-10       9.018739566926e-14      -2.499279010674e-12       3.462353617050e-16       1.207216239139e-11       1.576603459539e-12      -7.703316239170e-15 
   94       3.381148233127e-10       9.227230618586e-14      -2.586384302285e-12       3.537791812498e-16       1.174333613847e-11       1.542321013172e-12      -7.650494854462e-15 
   95       3.421795366994e-10       9.434974100870e-14      -2.673995032285e-12       3.614090201596e-16       1.142554443664e-11       1.509083528818e-12      -7.588789245052e-15 
   96       3.462737159983e-10       9.641783416806e-14      -2.762048207984e-12       3.691253712976e-16       1.111875027381e-11       1.476892098396e-12      -7.519364840655e-15 
   97       3.503973280116e-10       9.847469143446e-14      -2.850479584632e-12       3.769287526905e-16       1.082281500319e-11       1.445737567945e-12      -7.443501749854e-15 
   98       3.545501760639e-10       1.005183907533e-13      -2.939223683529e-12       3.848197080871e-16       1.053749459417e-11       1.415600151956e-12      -7.362597761504e-15 
   99       3.587318930213e-10       1.025469826796e-13      -3.028213810149e-12       3.927988075173e-16       1.026243588317e-11       1.386449047688e-12      -7.278171346127e-15 
  100       3.629419343098e-10       1.045584908127e-13      -3.117382072249e-12       4.008666478515e-16       9.997172824463e-12       1.358242049507e-12      -7.191864657320e-15 
  101       3.671795709349e-10       1.065509122310e-13      -3.206659397997e-12       4.090238533590e-16       9.741122741015e-12       1.330925163200e-12      -7.105446533156e-15 
  102       3.714438825004e-10       1.085222179265e-13      -3.295975554080e-12       4.172710762671e-16       9.493582575349e-12       1.304432220311e-12      -7.020815497582e-15 
  103       3.757337502275e-10       1.104703532398e-13      -3.385259163824e-12       4.256089973204e-16       9.253725140372e-12       1.278684492462e-12      -6.940002761825e-15 
  104       3.800480887161e-10       1.123932892211e-13      -3.474438310455e-12       4.340383070493e-16       9.020786551971e-12       1.253609214724e-12      -6.864735400837e-15 
  105       3.843865919205e-10       1.142891836804e-13      -3.563442400657e-12       4.425596454918e-16       8.794665437665e-12       1.229198836158e-12      -6.795052214451e-15 
  106       3.887490753990e-10       1.161562428046e-13      -3.652200587700e-12       4.511736553333e-16       8.575398059624e-12       1.205459091416e-12      -6.730505614280e-15 
  107       3.931352422649e-10       1.179926731559e-13      -3.740641233030e-12       4.598810008122e-16       8.362972732767e-12       1.182390630691e-12      -6.670582942152e-15 
