# dimensionless total lensed [l(l+1)/2pi] C_l's
# for l=2 to 2500, i.e. number of multipoles equal to 2499
#
# -> if you prefer output in CAMB/HealPix/LensPix units/order, set 'format' to 'camb' in input file
# -> if you don't want to see such a header, set 'headers' to 'no' in input file
# -> for CMB lensing (phi), these are C_l^phi-phi for the lensing potential.
#    Remember the conversion factors:
#    C_l^dd (deflection) = l(l+1) C_l^phi-phi
#    C_l^gg (shear/convergence) = 1/4 (l(l+1))^2 C_l^phi-phi
#
# 1:l     2:TT                     3:EE                     4:TE                     5:BB                     6:phiphi                 7:TPhi                   8:Ephi               
    2       1.424634802863e-10       4.162140492751e-15       3.803346057983e-13       2.273026361257e-19       8.231935422267e-09       4.309788290586e-10      -1.840053972248e-12 
    3       1.348774171563e-10       5.344086170536e-15       4.246654699216e-13       4.546992309437e-19       5.063580703485e-09       3.066573401827e-10      -1.394976238393e-12 
    4       1.275014849318e-10       4.632622592200e-15       3.953328591014e-13       7.580389689417e-19       3.518492974936e-09       2.324958956622e-10      -9.149469825443e-13 
    5       1.218539137706e-10       3.097784363052e-15       3.348471588029e-13       1.137441951151e-18       2.625484996324e-09       1.836880173611e-10      -5.103482978327e-13 
    6       1.178741936502e-10       1.735502301475e-15       2.676509602209e-13       1.593053974291e-18       2.050550180156e-09       1.494198287076e-10      -2.117469174754e-13 
    7       1.151809783504e-10       9.378402770598e-16       2.079852665954e-13       2.125043838343e-18       1.654248173044e-09       1.242526074982e-10      -2.078828582451e-14 
    8       1.134944505115e-10       6.039459528893e-16       1.621379457528e-13       2.733600300581e-18       1.367262130362e-09       1.051642647993e-10       7.718070043667e-14 
    9       1.125642348410e-10       4.847860450498e-16       1.314802956626e-13       3.418928765895e-18       1.151350355655e-09       9.035125016361e-11       1.052009742821e-13 
   10       1.121632394068e-10       4.144709851252e-16       1.145598738864e-13       4.181247809599e-18       9.839978077285e-10       7.861628732454e-11       8.889174707152e-14 
   11       1.122270445714e-10       3.499625435161e-16       1.084499900113e-13       5.020785631921e-18       8.289420164117e-10       6.945046771462e-11       5.221275557636e-14 
   12       1.126067111812e-10       3.062744762305e-16       1.097831684286e-13       5.937776542917e-18       7.242001487633e-10       6.137140114064e-11       1.272144492685e-14 
   13       1.132493293026e-10       2.946470293134e-16       1.155627109232e-13       6.932457572738e-18       6.382255161749e-10       5.482686993523e-11      -1.755380861037e-14 
   14       1.141020086893e-10       3.074733055474e-16       1.235376036993e-13       8.005065295116e-18       5.667029098560e-10       4.911057419538e-11      -3.426803162925e-14 
   15       1.151534488543e-10       3.330010564042e-16       1.323045204527e-13       9.155832941942e-18       5.065057641259e-10       4.431520739462e-11      -3.748924703394e-14 
   16       1.163307984581e-10       3.685232284173e-16       1.411045339907e-13       1.038498787433e-17       4.553296617985e-10       4.018858137208e-11      -3.107593505257e-14 
   17       1.176542129717e-10       4.195387458863e-16       1.497244342399e-13       1.169274946094e-17       4.114339731716e-10       3.659044976964e-11      -2.016494475857e-14 
   18       1.190620510068e-10       4.915371451710e-16       1.584592557604e-13       1.307932722177e-17       3.733387699216e-10       3.344949712466e-11      -9.648165664439e-15 
   19       1.205652506406e-10       5.848964289449e-16       1.675441682000e-13       1.454492049183e-17       3.404392184015e-10       3.072266222412e-11      -2.161727377030e-15 
   20       1.221527797076e-10       6.976642048804e-16       1.771370389458e-13       1.608971570070e-17       3.114656718822e-10       2.830580411988e-11       5.354879917560e-16 
   21       1.238273601686e-10       8.292117293282e-16       1.872360968959e-13       1.771388879960e-17       2.859624536679e-10       2.615435966470e-11      -1.031064414373e-15 
   22       1.255644386497e-10       9.790545329006e-16       1.977041305015e-13       1.941760228005e-17       2.633190981853e-10       2.421121515938e-11      -5.153176613652e-15 
   23       1.273669959764e-10       1.147423043120e-15       2.081908234179e-13       2.120100900481e-17       2.432239733637e-10       2.246641497531e-11      -1.009729214501e-14 
   24       1.292254585101e-10       1.334574824574e-15       2.182363995843e-13       2.306424917439e-17       2.252121586144e-10       2.090355731740e-11      -1.400094337792e-14 
   25       1.311434157636e-10       1.540543674178e-15       2.275549996149e-13       2.500745580498e-17       2.090715143653e-10       1.950631245261e-11      -1.601129207259e-14 
   26       1.331118355304e-10       1.765526674294e-15       2.359151064094e-13       2.703075107079e-17       1.945096110805e-10       1.824392080032e-11      -1.576360587921e-14 
   27       1.351235714757e-10       2.011519203385e-15       2.431947444961e-13       2.913425156682e-17       1.813515259922e-10       1.709707173306e-11      -1.385498628965e-14 
   28       1.371633881946e-10       2.281067172139e-15       2.493373252340e-13       3.131806581002e-17       1.693701695002e-10       1.604314633321e-11      -1.127609468993e-14 
   29       1.392405221450e-10       2.575656284573e-15       2.544085834394e-13       3.358230281580e-17       1.585042437753e-10       1.508055509778e-11      -8.685177031693e-15 
   30       1.413605430597e-10       2.896439759267e-15       2.585522101859e-13       3.592706494685e-17       1.486369680698e-10       1.420602586113e-11      -6.755859663293e-15 
   31       1.435182925440e-10       3.244509380341e-15       2.619169836744e-13       3.835244788559e-17       1.395669296519e-10       1.340797515827e-11      -6.113512549195e-15 
   32       1.457165331888e-10       3.620791454671e-15       2.644600111285e-13       4.085855143905e-17       1.312471994807e-10       1.267783158488e-11      -6.589816124500e-15 
   33       1.479515516328e-10       4.026098592901e-15       2.660690144459e-13       4.344547257781e-17       1.236188477198e-10       1.200127442402e-11      -7.676271666985e-15 
   34       1.502126762767e-10       4.461189904527e-15       2.666139551773e-13       4.611330413462e-17       1.165750054165e-10       1.136090891591e-11      -8.802393391936e-15 
   35       1.525024932587e-10       4.926916482597e-15       2.659561513681e-13       4.886214013161e-17       1.100795574714e-10       1.075888286883e-11      -9.677053133834e-15 
   36       1.548219542660e-10       5.424117762503e-15       2.639396396032e-13       5.169207243374e-17       1.040803332184e-10       1.020147449260e-11      -1.005772321929e-14 
   37       1.571675472905e-10       5.953586908912e-15       2.604213186963e-13       5.460318893510e-17       9.849918460054e-11       9.692126641402e-12      -9.746400490219e-15 
   38       1.595428737432e-10       6.516098124214e-15       2.553878737489e-13       5.759557178327e-17       9.332166210426e-11       9.228847933449e-12      -8.893529737900e-15 
   39       1.619497276592e-10       7.112381914113e-15       2.488781013141e-13       6.066929869968e-17       8.853131577799e-11       8.805455162318e-12      -7.798163969272e-15 
   40       1.643842437766e-10       7.743113222762e-15       2.409533564167e-13       6.382444353428e-17       8.408241851070e-11       8.411865805229e-12      -6.832698961506e-15 
   41       1.668400286432e-10       8.408928365055e-15       2.316734605052e-13       6.706107345671e-17       7.991589030743e-11       8.037143282951e-12      -6.345304776481e-15 
   42       1.693201940990e-10       9.110491016004e-15       2.210117190197e-13       7.037923928397e-17       7.601944440133e-11       7.680581574655e-12      -6.317628541355e-15 
   43       1.718282508588e-10       9.848441707420e-15       2.089145314304e-13       7.377898210632e-17       7.238272261983e-11       7.343699294572e-12      -6.603638785296e-15 
   44       1.743644006194e-10       1.062337707350e-14       1.953240764943e-13       7.726033575101e-17       6.897924749128e-11       7.027108945979e-12      -7.020062847198e-15 
   45       1.769269511949e-10       1.143584304385e-14       1.801835997423e-13       8.082332309635e-17       6.577587530096e-11       6.730630087642e-12      -7.387362943079e-15 
   46       1.795178513969e-10       1.228631709339e-14       1.634560810322e-13       8.446794402702e-17       6.276754895970e-11       6.453866371798e-12      -7.672691277312e-15 
   47       1.821382442351e-10       1.317521700615e-14       1.451104837044e-13       8.819418364152e-17       5.995075226986e-11       6.195658673509e-12      -7.885761391773e-15 
   48       1.847866359367e-10       1.410290269074e-14       1.251164993663e-13       9.200201515223e-17       5.731302822324e-11       5.953832753716e-12      -8.039470770067e-15 
   49       1.874586635213e-10       1.506967374970e-14       1.034444844498e-13       9.589139954221e-17       5.483231420746e-11       5.725126915110e-12      -8.150093653180e-15 
   50       1.901493913842e-10       1.607576607808e-14       8.006511470982e-14       9.986228515279e-17       5.248358373708e-11       5.506124563688e-12      -8.236429220153e-15 
   51       1.928614751778e-10       1.712134620974e-14       5.494838534479e-14       1.039146071107e-16       5.026243932224e-11       5.296518151511e-12      -8.316526215602e-15 
   52       1.955988121622e-10       1.820651123488e-14       2.806422980604e-14       1.080482871522e-16       4.816677448097e-11       5.096606143047e-12      -8.410402553042e-15 
   53       1.983640951550e-10       1.933128721906e-14      -6.172967597143e-16       1.122632333404e-16       4.618971358745e-11       4.906341083005e-12      -8.541152493396e-15 
   54       2.011586991178e-10       2.049562672685e-14      -3.112609422615e-14       1.165593397185e-16       4.431929091484e-11       4.725304541882e-12      -8.735090301347e-15 
   55       2.039831690730e-10       2.169944489654e-14      -6.348745600887e-14       1.209364940979e-16       4.254209918124e-11       4.552920466495e-12      -9.012969700942e-15 
   56       2.068390856118e-10       2.294274383155e-14      -9.770688190556e-14       1.253946044793e-16       4.085603186638e-11       4.389214694662e-12      -9.360758798514e-15 
   57       2.097274641667e-10       2.422551477302e-14      -1.337816268129e-13       1.299335785885e-16       3.926014417832e-11       4.234200235431e-12      -9.751856648605e-15 
   58       2.126481062593e-10       2.554770130300e-14      -1.717049066402e-13       1.345533162879e-16       3.775079820739e-11       4.087639972278e-12      -1.015518176698e-14 
   59       2.155995095160e-10       2.690919837012e-14      -2.114657943158e-13       1.392537095474e-16       3.632149662504e-11       3.949030897156e-12      -1.053496809086e-14 
   60       2.185787776832e-10       2.830985131521e-14      -2.530491157946e-13       1.440346424144e-16       3.496271638262e-11       3.817588344553e-12      -1.085056093913e-14 
   61       2.215829160239e-10       2.974938978684e-14      -2.964379358442e-13       1.488960061964e-16       3.366455191864e-11       3.692464156968e-12      -1.106577841544e-14 
   62       2.246132608522e-10       3.122721435869e-14      -3.416219026782e-13       1.538377490573e-16       3.242571430311e-11       3.573494072290e-12      -1.117991266546e-14 
   63       2.276718891014e-10       3.274256006916e-14      -3.885906003523e-13       1.588598375520e-16       3.124626613609e-11       3.460590882059e-12      -1.120335678070e-14 
   64       2.307602755622e-10       3.429455432498e-14      -4.373311028758e-13       1.639622428403e-16       3.012491465449e-11       3.353517125203e-12      -1.114875088704e-14 
   65       2.338792468560e-10       3.588221386101e-14      -4.878279523908e-13       1.691449411404e-16       2.905893457449e-11       3.251876744569e-12      -1.103108160925e-14 
   66       2.370289354068e-10       3.750444169991e-14      -5.400631373501e-13       1.744079141820e-16       2.804409093386e-11       3.155106743438e-12      -1.086778153548e-14 
   67       2.402087334144e-10       3.916002411194e-14      -5.940160706968e-13       1.797511496590e-16       2.707456193439e-11       3.062468842047e-12      -1.067882868177e-14 
   68       2.434178861084e-10       4.084774763627e-14      -6.496646627204e-13       1.851746498990e-16       2.614449307139e-11       2.973239118518e-12      -1.048295072694e-14 
   69       2.466575139853e-10       4.256678447525e-14      -7.069888408419e-13       1.906784588974e-16       2.525319766972e-11       2.887340203146e-12      -1.028512226380e-14 
   70       2.499289195272e-10       4.431638008830e-14      -7.659677071063e-13       1.962626416001e-16       2.440087634567e-11       2.804822783298e-12      -1.008670120426e-14 
   71       2.532329550297e-10       4.609574006967e-14      -8.265785126725e-13       2.019272768236e-16       2.358704415511e-11       2.725675732038e-12      -9.889099701159e-15 
   72       2.565699929247e-10       4.790403017875e-14      -8.887966639893e-13       2.076724579181e-16       2.281049515676e-11       2.649822828190e-12      -9.693783990466e-15 
   73       2.599398961026e-10       4.974037637048e-14      -9.525957289706e-13       2.134982934306e-16       2.206926697548e-11       2.577119476396e-12      -9.502274233576e-15 
   74       2.633419882349e-10       5.160386482575e-14      -1.017947443171e-12       2.194049077686e-16       2.136060536556e-11       2.507349427184e-12      -9.316144359550e-15 
   75       2.667750240972e-10       5.349354198172e-14      -1.084821715961e-12       2.253924418627e-16       2.068092877396e-11       2.440221497023e-12      -9.137021907368e-15 
   76       2.702377831836e-10       5.540835953965e-14      -1.153186168285e-12       2.314610469098e-16       2.002671699977e-11       2.375446400065e-12      -8.966461305945e-15 
   77       2.737310411276e-10       5.734699784397e-14      -1.223004634963e-12       2.376108628185e-16       1.939744259236e-11       2.312990668843e-12      -8.805537384967e-15 
   78       2.772559055314e-10       5.930801020106e-14      -1.294238399225e-12       2.438420370196e-16       1.879311211000e-11       2.252863293381e-12      -8.655177107822e-15 
   79       2.808132079436e-10       6.128987396440e-14      -1.366846633529e-12       2.501547315506e-16       1.821337322550e-11       2.195038106594e-12      -8.516276849418e-15 
   80       2.844034869620e-10       6.329098943670e-14      -1.440786396133e-12       2.565491235775e-16       1.765749823882e-11       2.139452147112e-12      -8.389699643186e-15 
   81       2.880269713379e-10       6.530967877195e-14      -1.516012627658e-12       2.630254059154e-16       1.712436758972e-11       2.086004022091e-12      -8.276272428068e-15 
   82       2.916835630795e-10       6.734418487754e-14      -1.592478147668e-12       2.695837875503e-16       1.661245337033e-11       2.034552270031e-12      -8.176783295510e-15 
   83       2.953728205555e-10       6.939267031631e-14      -1.670133651232e-12       2.762244941605e-16       1.611980283782e-11       1.984913723596e-12      -8.091978736460e-15 
   84       2.990942387533e-10       7.145328360226e-14      -1.748928328733e-12       2.829477649615e-16       1.564451275773e-11       1.936909348447e-12      -8.022173200228e-15 
   85       3.028481804466e-10       7.352437312015e-14      -1.828811850848e-12       2.897538415006e-16       1.518627890052e-11       1.890514077180e-12      -7.966009431748e-15 
   86       3.066350691345e-10       7.560430682112e-14      -1.909732707878e-12       2.966429779520e-16       1.474507438424e-11       1.845728928476e-12      -7.921486621475e-15 
   87       3.104550938862e-10       7.769140801650e-14      -1.991637622711e-12       3.036154450803e-16       1.432067356613e-11       1.802534912684e-12      -7.886320689192e-15 
   88       3.143081974377e-10       7.978395541259e-14      -2.074471557866e-12       3.106715307001e-16       1.391264380446e-11       1.760892192550e-12      -7.857935015235e-15 
   89       3.181940642908e-10       8.188018314535e-14      -2.158177722539e-12       3.178115401352e-16       1.352033722044e-11       1.720739243950e-12      -7.833451171718e-15 
   90       3.221121088099e-10       8.397828081522e-14      -2.242697579649e-12       3.250357966786e-16       1.314288246005e-11       1.681992016626e-12      -7.809679653759e-15 
   91       3.260614633207e-10       8.607639352184e-14      -2.327970852878e-12       3.323446420519e-16       1.277917645593e-11       1.644543094915e-12      -7.783110610711e-15 
   92       3.300409662076e-10       8.817262189883e-14      -2.413935533721e-12       3.397384368645e-16       1.242787618931e-11       1.608260858485e-12      -7.749904577383e-15 
   93       3.340495088832e-10       9.026505125345e-14      -2.500528709088e-12       3.472175684534e-16       1.208771719821e-11       1.573021744487e-12      -7.706774490325e-15 
   94       3.380871622426e-10       9.235184392347e-14      -2.587689171197e-12       3.547824747521e-16       1.175854179317e-11       1.538814407422e-12      -7.653803613592e-15 
   95       3.421541984102e-10       9.443116093965e-14      -2.675355215060e-12       3.624336248779e-16       1.144041097336e-11       1.505649746095e-12      -7.592036264217e-15 
   96       3.462507400815e-10       9.650113458700e-14      -2.763463870963e-12       3.701715126248e-16       1.113328775661e-11       1.473528818309e-12      -7.522627216029e-15 
   97       3.503767535467e-10       9.855986883901e-14      -2.851950922774e-12       3.779966570249e-16       1.083703342642e-11       1.442442455969e-12      -7.446844665394e-15 
   98       3.545320417149e-10       1.006054397920e-13      -2.940750926251e-12       3.859096029088e-16       1.055140377909e-11       1.412370880199e-12      -7.366073196972e-15 
   99       3.587162371385e-10       1.026358960991e-13      -3.029797227350e-12       3.939109214667e-16       1.027604537075e-11       1.383283316446e-12      -7.281816749465e-15 
  100       3.629287950363e-10       1.046492594052e-13      -3.119021980535e-12       4.020012108090e-16       1.001049176445e-11       1.355137609597e-12      -7.195701581366e-15 
  101       3.671689863185e-10       1.066435247805e-13      -3.208356167087e-12       4.101810965274e-16       9.754159777212e-12       1.327879839083e-12      -7.109479236711e-15 
  102       3.714358906101e-10       1.086166611550e-13      -3.297729613408e-12       4.184512322555e-16       9.506345727115e-12       1.301443933997e-12      -7.025029510828e-15 
  103       3.757283892750e-10       1.105666117530e-13      -3.387071009335e-12       4.268123002299e-16       9.266221680357e-12       1.275751288199e-12      -6.944363416088e-15 
  104       3.800453966137e-10       1.124913455870e-13      -3.476308485483e-12       4.352649924080e-16       9.033023064059e-12       1.250729268251e-12      -6.869190777584e-15 
  105       3.843866040488e-10       1.143890189262e-13      -3.565371394674e-12       4.438099497105e-16       8.806648451422e-12       1.226370413594e-12      -6.799550108660e-15 
  106       3.887518239308e-10       1.162578365514e-13      -3.654188806408e-12       4.524478155791e-16       8.587134179447e-12       1.202680553133e-12      -6.734998318922e-15 
  107       3.931407560356e-10       1.180960036260e-13      -3.742688993470e-12       4.611792550289e-16       8.374468588268e-12       1.179660451413e-12      -6.675027759988e-15 
