# dimensionless total lensed [l(l+1)/2pi] C_l's
# for l=2 to 2500, i.e. number of multipoles equal to 2499
#
# -> if you prefer output in CAMB/HealPix/LensPix units/order, set 'format' to 'camb' in input file
# -> if you don't want to see such a header, set 'headers' to 'no' in input file
# -> for CMB lensing (phi), these are C_l^phi-phi for the lensing potential.
#    Remember the conversion factors:
#    C_l^dd (deflection) = l(l+1) C_l^phi-phi
#    C_l^gg (shear/convergence) = 1/4 (l(l+1))^2 C_l^phi-phi
#
# 1:l     2:TT                     3:EE                     4:TE                     5:BB                     6:phiphi                 7:TPhi                   8:Ephi               
    2       1.423292491420e-10       4.161672893260e-15       3.795126281018e-13       2.267839475677e-19       8.228573110398e-09       4.314230722310e-10      -1.840046434035e-12 
    3       1.347557218417e-10       5.343526297608e-15       4.238336927539e-13       4.536616916546e-19       5.062839302770e-09       3.069344848743e-10      -1.394934790133e-12 
    4       1.273952364065e-10       4.632087742300e-15       3.946165521637e-13       7.563093815460e-19       3.517817700070e-09       2.326858479983e-10      -9.149096431499e-13 
    5       1.217619100943e-10       3.097383164381e-15       3.343017693629e-13       1.134846916135e-18       2.624794506388e-09       1.838286494268e-10      -5.103203760729e-13 
    6       1.177945659036e-10       1.735250702659e-15       2.672818175891e-13       1.589419851111e-18       2.049914284691e-09       1.495285005784e-10      -2.117269194074e-13 
    7       1.151122970697e-10       9.376933496117e-16       2.077656952002e-13       2.120196713582e-18       1.653659040970e-09       1.243400555686e-10      -2.077402384131e-14 
    8       1.134353312164e-10       6.038555087788e-16       1.620267153411e-13       2.727365963906e-18       1.366739495660e-09       1.052388392643e-10       7.719091860813e-14 
    9       1.125133622593e-10       4.847182687452e-16       1.314345474378e-13       3.411132694227e-18       1.150903153898e-09       9.041633102941e-11       1.052084426788e-13 
   10       1.121199135569e-10       4.144065702148e-16       1.145429510966e-13       4.171715159601e-18       9.836205392784e-10       7.867185289640e-11       8.889710972146e-14 
   11       1.121902384331e-10       3.498910324177e-16       1.084348608641e-13       5.009341240560e-18       8.286094502683e-10       6.949783464655e-11       5.221586952484e-14 
   12       1.125760270010e-10       3.061900165774e-16       1.097541343384e-13       5.924244935542e-18       7.238967265210e-10       6.141375594874e-11       1.272321186835e-14 
   13       1.132242800390e-10       2.945445376922e-16       1.155127982491e-13       6.916662977832e-18       6.379472995163e-10       5.486488723608e-11      -1.755324077633e-14 
   14       1.140817805937e-10       3.073463927458e-16       1.234660835507e-13       7.986831664612e-18       5.664466658404e-10       4.914401755022e-11      -3.426897837713e-14 
   15       1.151376808725e-10       3.328405917527e-16       1.322153111649e-13       9.134983975805e-18       5.062687828224e-10       4.434547915148e-11      -3.749042152952e-14 
   16       1.163195278186e-10       3.683185659215e-16       1.410022011476e-13       1.036134704796e-17       4.551097841666e-10       4.021664914150e-11      -3.107674886595e-14 
   17       1.176469136891e-10       4.192795170058e-16       1.496132022915e-13       1.166614005389e-17       4.112293293772e-10       3.661685869636e-11      -2.016463032314e-14 
   18       1.190585151582e-10       4.912144471837e-16       1.583418912167e-13       1.304957234696e-17       3.731478258641e-10       3.347393884846e-11      -9.646473468475e-15 
   19       1.205652832140e-10       5.845011550396e-16       1.674218242935e-13       1.451184311934e-17       3.402605285064e-10       3.074512834165e-11      -2.158567406335e-15 
   20       1.221560578932e-10       6.971863648163e-16       1.770091277078e-13       1.605313868668e-17       3.112981011670e-10       2.832698377386e-11       5.402869868419e-16 
   21       1.238337037198e-10       8.286401888112e-16       1.871016764262e-13       1.767363490019e-17       2.858049593012e-10       2.617481748909e-11      -1.024392141380e-15 
   22       1.255738912949e-10       9.783771001055e-16       1.975624026598e-13       1.937349417144e-17       2.631708135704e-10       2.423104917897e-11      -5.144456642555e-15 
   23       1.273794619941e-10       1.146627715623e-15       2.080410731019e-13       2.115286928614e-17       2.430840961215e-10       2.248542992003e-11      -1.008700947676e-14 
   24       1.292406439022e-10       1.333649987859e-15       2.180781106163e-13       2.301190037688e-17       2.250800120438e-10       2.092139120082e-11      -1.399035408949e-14 
   25       1.311612268366e-10       1.539476169144e-15       2.273882958253e-13       2.495072038212e-17       2.089464693548e-10       1.952299054118e-11      -1.600145698251e-14 
   26       1.331324604073e-10       1.764301269613e-15       2.357408599551e-13       2.696945139574e-17       1.943911265972e-10       1.825995997575e-11      -1.575501407495e-14 
   27       1.351470013130e-10       2.010120037159e-15       2.430138715836e-13       2.906820991415e-17       1.812391061584e-10       1.711278617191e-11      -1.384769696421e-14 
   28       1.371892992615e-10       2.279478312473e-15       2.491505363705e-13       3.124710434272e-17       1.692633885009e-10       1.605844762256e-11      -1.126978947880e-14 
   29       1.392686099457e-10       2.573861860292e-15       2.542164190285e-13       3.350624355760e-17       1.584026839954e-10       1.509533408626e-11      -8.679473379554e-15 
   30       1.413906606445e-10       2.894424154962e-15       2.583550056119e-13       3.584572976305e-17       1.485402478179e-10       1.422028476565e-11      -6.750425804376e-15 
   31       1.435504558300e-10       3.242256704966e-15       2.617148738430e-13       3.826565846607e-17       1.394747412546e-10       1.342182238708e-11      -6.108084148964e-15 
   32       1.457507389895e-10       3.618282342219e-15       2.642531823999e-13       4.076612927913e-17       1.311592445915e-10       1.269135617342e-11      -6.584153276191e-15 
   33       1.479877129713e-10       4.023308582180e-15       2.658578043720e-13       4.334723895697e-17       1.235348449224e-10       1.201449405531e-11      -7.670155963378e-15 
   34       1.502506343735e-10       4.458090280988e-15       2.663988911799e-13       4.600908010052e-17       1.164947130719e-10       1.137376824378e-11      -8.795667099091e-15 
   35       1.525421319414e-10       4.923481521603e-15       2.657379881117e-13       4.875174650803e-17       1.100027433295e-10       1.077132491800e-11      -9.669746752333e-15 
   36       1.548632494635e-10       5.420327922719e-15       2.637194025285e-13       5.157532981034e-17       1.040067834242e-10       1.021346410753e-11      -1.005013081337e-14 
   37       1.572105591226e-10       5.949428246769e-15       2.602002655092e-13       5.447991766744e-17       9.842871673563e-11       9.703653671765e-12      -9.739044453832e-15 
   38       1.595876282901e-10       6.511554142289e-15       2.551671624867e-13       5.746559205437e-17       9.325409565560e-11       9.239926016912e-12      -8.886813288303e-15 
   39       1.619961724830e-10       7.107430457407e-15       2.486586521253e-13       6.053243053973e-17       8.846647403864e-11       8.816123780731e-12      -7.792230465003e-15 
   40       1.644322316770e-10       7.737725303586e-15       2.407357865927e-13       6.368050682408e-17       8.402014361223e-11       8.422193716004e-12      -6.827369678646e-15 
   41       1.668893289770e-10       8.403069054161e-15       2.314580881948e-13       6.690988795572e-17       7.985605039368e-11       8.047222201289e-12      -6.340107010032e-15 
   42       1.693706000097e-10       9.104127521939e-15       2.207988098127e-13       7.022062474124e-17       7.596191089186e-11       7.690486433468e-12      -6.312139641924e-15 
   43       1.718796201207e-10       9.841546481252e-15       2.087043741841e-13       7.361275831575e-17       7.232736992788e-11       7.353471297204e-12      -6.597610389133e-15 
   44       1.744166715429e-10       1.061592904496e-14       1.951169940328e-13       7.708632258646e-17       6.892596182383e-11       7.036747056008e-12      -7.013462112767e-15 
   45       1.769801370521e-10       1.142782697686e-14       1.799799828285e-13       8.064134056124e-17       6.572455839416e-11       6.740093639444e-12      -7.380363302763e-15 
   46       1.795719605015e-10       1.227771645988e-14       1.632564983435e-13       8.427781234866e-17       6.271810311375e-11       6.463116258317e-12      -7.665487860707e-15 
   47       1.821932537660e-10       1.316601152609e-14       1.449157400542e-13       8.799572333728e-17       5.990307972168e-11       6.204670587389e-12      -7.878513602460e-15 
   48       1.848424859372e-10       1.409306761705e-14       1.249276756531e-13       9.179504708666e-17       5.726703619889e-11       5.962599915154e-12      -8.032292746849e-15 
   49       1.875152505618e-10       1.505917911257e-14       1.032629797926e-13       9.567574498673e-17       5.478792036325e-11       5.733662940165e-12      -8.143044173637e-15 
   50       1.902065742844e-10       1.606457723257e-14       7.989258508436e-14       9.963776583079e-17       5.244071799562e-11       5.514461395509e-12      -8.229518266817e-15 
   51       1.929191215529e-10       1.710942880453e-14       5.478633352742e-14       1.036810451879e-16       5.022103283794e-11       5.304687274610e-12      -8.309778155866e-15 
   52       1.956568146438e-10       1.819383288986e-14       2.791385314135e-14       1.078055052715e-16       4.812675865435e-11       5.104632219681e-12      -8.403877108495e-15 
   53       1.984223764230e-10       1.931781798615e-14      -7.551638982031e-16       1.120110546741e-16       4.615102296380e-11       4.914240174339e-12      -8.534950078635e-15 
   54       2.012172171785e-10       2.048133957350e-14      -3.125104076193e-14       1.162975880226e-16       4.428186628355e-11       4.733082230670e-12      -8.729357615475e-15 
   55       2.040419131679e-10       2.168431531418e-14      -6.359943799114e-14       1.206649937120e-16       4.250588849754e-11       4.560572409389e-12      -9.007884050640e-15 
   56       2.068980407273e-10       2.292674651245e-14      -9.780577657167e-14       1.251131801441e-16       4.082098354684e-11       4.396735395848e-12      -9.356441849808e-15 
   57       2.097865995735e-10       2.420862253025e-14      -1.338670844720e-13       1.296420554032e-16       3.922620647957e-11       4.241585468787e-12      -9.748341661099e-15 
   58       2.127073728593e-10       2.552988481225e-14      -1.717763115372e-13       1.342515197199e-16       3.771792092302e-11       4.094886854344e-12      -1.015240024015e-14 
   59       2.156588370603e-10       2.689042589934e-14      -2.115222236349e-13       1.389414654409e-16       3.628963289049e-11       3.956137960117e-12      -1.053273582451e-14 
   60       2.186380718616e-10       2.829008844187e-14      -2.530892968019e-13       1.437117769992e-16       3.493182458815e-11       3.824555609233e-12      -1.084856350810e-14 
   61       2.216420619638e-10       2.972860002235e-14      -2.964602749123e-13       1.485623460396e-16       3.363459599874e-11       3.699292939514e-12      -1.106359675239e-14 
   62       2.246721478171e-10       3.120536275964e-14      -3.416247530188e-13       1.534931208303e-16       3.239665848493e-11       3.580185922074e-12      -1.117718081350e-14 
   63       2.277304185416e-10       3.271961451342e-14      -3.885723415633e-13       1.585040679397e-16       3.121807417117e-11       3.467147192482e-12      -1.119981623862e-14 
   64       2.308183631259e-10       3.427048594417e-14      -4.372901519438e-13       1.635951585012e-16       3.009755072449e-11       3.359938985334e-12      -1.114426756987e-14 
   65       2.339368244785e-10       3.585699748980e-14      -4.877627751725e-13       1.687663686644e-16       2.903236424995e-11       3.258164782334e-12      -1.102566351426e-14 
   66       2.370859534799e-10       3.747805634233e-14      -5.399722605331e-13       1.740176800460e-16       2.801828218615e-11       3.161260960372e-12      -1.086159711348e-14 
   67       2.402651630335e-10       3.913245342448e-14      -5.938980942391e-13       1.793490801805e-16       2.704948620074e-11       3.068488439608e-12      -1.067222591387e-14 
   68       2.434737166636e-10       4.081897941567e-14      -6.495182844290e-13       1.847605712186e-16       2.612012530281e-11       2.979122690477e-12      -1.047642844373e-14 
   69       2.467127355088e-10       4.253680688814e-14      -7.068129191534e-13       1.902521970598e-16       2.522951296967e-11       2.893087131242e-12      -1.027914537810e-14 
   70       2.499835173229e-10       4.428518052614e-14      -7.657612943022e-13       1.958240225530e-16       2.437784941942e-11       2.810433659403e-12      -1.008164152499e-14 
   71       2.532869087244e-10       4.606330494863e-14      -8.263408778835e-13       2.014761263854e-16       2.356464979346e-11       2.731152428478e-12      -9.885221887207e-15 
   72       2.566232754769e-10       4.787034473070e-14      -8.885273169763e-13       2.072086017444e-16       2.278870874553e-11       2.655168569206e-12      -9.691230970512e-15 
   73       2.599924727696e-10       4.970542442489e-14      -9.522944446835e-13       2.130215569795e-16       2.204806503073e-11       2.582338910743e-12      -9.501052091837e-15 
   74       2.633938154975e-10       5.156762858260e-14      -1.017614287084e-12       2.189151162638e-16       2.133996609452e-11       2.512448701863e-12      -9.316106687436e-15 
   75       2.668260485421e-10       5.345600177550e-14      -1.084457070188e-12       2.248894202565e-16       2.066083266177e-11       2.445208332154e-12      -9.137853621069e-15 
   76       2.702879424975e-10       5.536949420293e-14      -1.152790667002e-12       2.309446199241e-16       2.000714678245e-11       2.380329753289e-12      -8.967704566328e-15 
   77       2.737802719610e-10       5.730678701608e-14      -1.222578806957e-12       2.370808552436e-16       1.937838120269e-11       2.317779079405e-12      -8.806753868661e-15 
   78       2.773041456752e-10       5.926643503171e-14      -1.293782551079e-12       2.432982738005e-16       1.877454232587e-11       2.257564306708e-12      -8.655997936613e-15 
   79       2.808603964645e-10       6.124691724353e-14      -1.366360818448e-12       2.495970377969e-16       1.819527793738e-11       2.199658081945e-12      -8.516412423790e-15 
   80       2.844495643405e-10       6.324663572778e-14      -1.440270381674e-12       2.559773245734e-16       1.763986072988e-11       2.143996057907e-12      -8.388949816064e-15 
   81       2.880718796084e-10       6.526391454882e-14      -1.515465862367e-12       2.624393271303e-16       1.710717182851e-11       2.090475248954e-12      -8.274537018788e-15 
   82       2.917272459718e-10       6.729699866468e-14      -1.591899726608e-12       2.689832546494e-16       1.659568431619e-11       2.038952386519e-12      -8.174072943998e-15 
   83       2.954152236392e-10       6.934405283268e-14      -1.669522280422e-12       2.756093330159e-16       1.610344675881e-11       1.989242274624e-12      -8.088426097629e-15 
   84       2.991353098388e-10       7.140322765293e-14      -1.748282381933e-12       2.823178016210e-16       1.562855720299e-11       1.941164086993e-12      -8.018016884208e-15 
   85       3.028878708035e-10       7.347287267602e-14      -1.828129723393e-12       2.891089020214e-16       1.517071154198e-11       1.894692679097e-12      -7.961490245078e-15 
   86       3.066733340328e-10       7.555135678178e-14      -1.909012920923e-12       2.959828883475e-16       1.472988282380e-11       1.849829461981e-12      -7.916817524866e-15 
   87       3.104918928998e-10       7.763700421587e-14      -1.990878838869e-12       3.029400313070e-16       1.430584549101e-11       1.806555864571e-12      -7.881682935283e-15 
   88       3.143434947556e-10       7.972809462377e-14      -2.073672597325e-12       3.099806186437e-16       1.389816714912e-11       1.764832494926e-12      -7.853474162800e-15 
   89       3.182278290328e-10       8.182286308466e-14      -2.157337579645e-12       3.171049555970e-16       1.350620033512e-11       1.724598301490e-12      -7.829272976315e-15 
   90       3.221443153503e-10       8.391950014543e-14      -2.241815439960e-12       3.243133653604e-16       1.312907428594e-11       1.685769734349e-12      -7.805845834829e-15 
   91       3.260920916174e-10       8.601615185461e-14      -2.327046110702e-12       3.316061895411e-16       1.276568670695e-11       1.648239906485e-12      -7.779634495115e-15 
   92       3.300700021374e-10       8.811091979628e-14      -2.412967810110e-12       3.389837886188e-16       1.241469554041e-11       1.611877755029e-12      -7.746746619388e-15 
   93       3.340769433469e-10       9.020189029879e-14      -2.499517830034e-12       3.464465496919e-16       1.207483722949e-11       1.576560227441e-12      -7.703849046411e-15 
   94       3.381129863510e-10       9.228722701214e-14      -2.586635018509e-12       3.539949100523e-16       1.174595414444e-11       1.542276199249e-12      -7.651021686390e-15 
   95       3.421784020084e-10       9.436509238178e-14      -2.674257686196e-12       3.616293380214e-16       1.142810718112e-11       1.509036707510e-12      -7.589317483813e-15 
   96       3.462733114473e-10       9.643362014314e-14      -2.762322877354e-12       3.693503265308e-16       1.112125933448e-11       1.476842938229e-12      -7.519900957096e-15 
   97       3.503976790787e-10       9.849091575598e-14      -2.850766388068e-12       3.771583936812e-16       1.082527194883e-11       1.445685840943e-12      -7.444051196971e-15 
   98       3.545513056097e-10       1.005350568389e-13      -2.939522784478e-12       3.850540833017e-16       1.053990096801e-11       1.415545743299e-12      -7.363164864867e-15 
   99       3.587338210569e-10       1.025640936037e-13      -3.028525421005e-12       3.930379655085e-16       1.026479318567e-11       1.386391965639e-12      -7.278759191299e-15 
  100       3.629446777595e-10       1.045760492899e-13      -3.117706458582e-12       4.011106372647e-16       9.999482495493e-12       1.358182435578e-12      -7.192474974248e-15 
  101       3.671831433932e-10       1.065689205989e-13      -3.206996882877e-12       4.092727229388e-16       9.743386141405e-12       1.330863302593e-12      -7.106079577548e-15 
  102       3.714482939831e-10       1.085406781288e-13      -3.296326522527e-12       4.175248748639e-16       9.495800967846e-12       1.304368552597e-12      -7.021469929266e-15 
  103       3.757390069170e-10       1.104892668084e-13      -3.385624067359e-12       4.258677738973e-16       9.255899669977e-12       1.278619622527e-12      -6.940675520092e-15 
  104       3.800541933694e-10       1.124126573054e-13      -3.474817653579e-12       4.343021106893e-16       9.022918255151e-12       1.253543886952e-12      -6.865421953281e-15 
  105       3.843935463779e-10       1.143090072215e-13      -3.563836670087e-12       4.428285254060e-16       8.796755343941e-12       1.229133792139e-12      -6.795747990258e-15 
  106       3.887568812658e-10       1.161765225835e-13      -3.652610231288e-12       4.514476608688e-16       8.577447212184e-12       1.205395028797e-12      -6.731206408193e-15 
  107       3.931439009534e-10       1.180134097973e-13      -3.741066656083e-12       4.601601814597e-16       8.364982180428e-12       1.182328197491e-12      -6.671284957308e-15 
