# dimensionless total [l(l+1)/2pi] C_l's
# for l=2 to 3000, i.e. number of multipoles equal to 2999
#
# -> if you prefer output in CAMB/HealPix/LensPix units/order, set 'format' to 'camb' in input file
# -> if you don't want to see such a header, set 'headers' to 'no' in input file
# -> for CMB lensing (phi), these are C_l^phi-phi for the lensing potential.
#    Remember the conversion factors:
#    C_l^dd (deflection) = l(l+1) C_l^phi-phi
#    C_l^gg (shear/convergence) = 1/4 (l(l+1))^2 C_l^phi-phi
#
# 1:l     2:TT                     3:EE                     4:TE                     5:BB                     6:phiphi                 7:TPhi                   8:Ephi               
    2       1.412241956251e-10       4.149100526894e-15       3.804255434415e-13       0.000000000000e+00       8.262458239805e-09       4.244889734820e-10      -1.839554207837e-12 
    3       1.339095630422e-10       5.339259079989e-15       4.243823493872e-13       0.000000000000e+00       5.085472985945e-09       3.024170688728e-10      -1.396224716713e-12 
    4       1.267280837645e-10       4.641181208752e-15       3.950536180534e-13       0.000000000000e+00       3.533183580625e-09       2.294277440731e-10      -9.178333637961e-13 
    5       1.212151905760e-10       3.112277060091e-15       3.347460860183e-13       0.000000000000e+00       2.635850983393e-09       1.812740680563e-10      -5.139940999092e-13 
    6       1.173227983912e-10       1.746796861608e-15       2.677570912613e-13       0.000000000000e+00       2.058354612532e-09       1.474530706075e-10      -2.152397195473e-13 
    7       1.147357709140e-10       9.424134598970e-16       2.082081657231e-13       0.000000000000e+00       1.660317942550e-09       1.226902556855e-10      -2.348504397809e-14 
    8       1.131109799369e-10       6.035974675146e-16       1.623732399470e-13       0.000000000000e+00       1.372182671242e-09       1.039323072171e-10       7.558644140195e-14 
    9       1.122154772273e-10       4.825707248982e-16       1.316694830922e-13       0.000000000000e+00       1.155497205430e-09       8.929147671756e-11       1.047008883857e-13 
   10       1.118595372202e-10       4.117685947353e-16       1.146310164256e-13       0.000000000000e+00       9.875785412145e-10       7.762834166800e-11       8.924247203435e-14 
   11       1.119280566914e-10       3.464063013929e-16       1.083803128054e-13       0.000000000000e+00       8.315654882311e-10       6.853654760036e-11       5.298819050483e-14 
   12       1.123590578672e-10       3.011547712130e-16       1.096262222807e-13       0.000000000000e+00       7.264490114788e-10       6.068495194110e-11       1.362803129310e-14 
   13       1.130368876284e-10       2.878214669216e-16       1.153464719381e-13       0.000000000000e+00       6.401762361282e-10       5.420422912168e-11      -1.696664744025e-14 
   14       1.138833114309e-10       2.991611113098e-16       1.232724632855e-13       0.000000000000e+00       5.684057349600e-10       4.853069026765e-11      -3.408065384256e-14 
   15       1.149214167845e-10       3.233160609662e-16       1.319819449274e-13       0.000000000000e+00       5.080052380969e-10       4.376172065173e-11      -3.770423808475e-14 
   16       1.161540346195e-10       3.573005913476e-16       1.407509311289e-13       0.000000000000e+00       4.566599013093e-10       3.972429371239e-11      -3.156726062400e-14 
   17       1.174576851284e-10       4.062695295777e-16       1.494136630818e-13       0.000000000000e+00       4.126215248985e-10       3.624143978624e-11      -2.073294304516e-14 
   18       1.188722177692e-10       4.758535877362e-16       1.581403769037e-13       0.000000000000e+00       3.744037114165e-10       3.311633698479e-11      -1.016989046967e-14 
   19       1.204124887123e-10       5.667085734298e-16       1.671637218624e-13       0.000000000000e+00       3.413996098493e-10       3.034563294424e-11      -2.541703761775e-15 
   20       1.220107840880e-10       6.771302580098e-16       1.766979840950e-13       0.000000000000e+00       3.123351636614e-10       2.792757028758e-11       3.773775526477e-16 
   21       1.236811752386e-10       8.062963641024e-16       1.867471487892e-13       0.000000000000e+00       2.867530168075e-10       2.582509113503e-11      -9.384036080950e-16 
   22       1.254298094311e-10       9.534052652286e-16       1.971676945066e-13       0.000000000000e+00       2.640405258003e-10       2.395103484756e-11      -4.852917856121e-15 
   23       1.272445550210e-10       1.118793847238e-15       2.076344214363e-13       0.000000000000e+00       2.438847127243e-10       2.226126243074e-11      -9.689714268236e-15 
   24       1.290902182106e-10       1.302952687718e-15       2.177151278388e-13       0.000000000000e+00       2.258188323842e-10       2.070966769038e-11      -1.362841160402e-14 
   25       1.309869822469e-10       1.505908295401e-15       2.270922759266e-13       0.000000000000e+00       2.096301377147e-10       1.930391636470e-11      -1.578463610047e-14 
   26       1.329529857110e-10       1.727754234392e-15       2.354893928312e-13       0.000000000000e+00       1.950254708638e-10       1.805176508629e-11      -1.572299638736e-14 
   27       1.349737839711e-10       1.970356467269e-15       2.428025670968e-13       0.000000000000e+00       1.818293133639e-10       1.692948265924e-11      -1.394932670359e-14 
   28       1.370169009576e-10       2.236137167451e-15       2.490077369886e-13       0.000000000000e+00       1.698137405277e-10       1.589702680171e-11      -1.136975225904e-14 
   29       1.390897815862e-10       2.526605899832e-15       2.541557487483e-13       0.000000000000e+00       1.589171407559e-10       1.494826213694e-11      -8.678960597364e-15 
   30       1.412016224818e-10       2.843003649535e-15       2.583549684145e-13       0.000000000000e+00       1.490222417576e-10       1.407932941710e-11      -6.641562382636e-15 
   31       1.433509399036e-10       3.186507443217e-15       2.617232897505e-13       0.000000000000e+00       1.399268933372e-10       1.327925236610e-11      -5.972844415534e-15 
   32       1.455398619721e-10       3.558012189758e-15       2.642402701783e-13       0.000000000000e+00       1.315840213955e-10       1.254452925978e-11      -6.492306677936e-15 
   33       1.477624469172e-10       3.958252906002e-15       2.658397775922e-13       0.000000000000e+00       1.239345713080e-10       1.186852942874e-11      -7.639642567671e-15 
   34       1.500066905211e-10       4.387912188139e-15       2.664373676275e-13       0.000000000000e+00       1.168714128744e-10       1.124059199524e-11      -8.794475276105e-15 
   35       1.522796022281e-10       4.847832130439e-15       2.658959640632e-13       0.000000000000e+00       1.103583190029e-10       1.065866556051e-11      -9.675227476315e-15 
   36       1.545892685765e-10       5.338867655406e-15       2.640453864717e-13       0.000000000000e+00       1.043429434093e-10       1.012025920824e-11      -1.007116458495e-14 
   37       1.569383171613e-10       5.861840234298e-15       2.607235907157e-13       0.000000000000e+00       9.874688690843e-11       9.620450725293e-12      -9.812131398739e-15 
   38       1.593268128945e-10       6.417583247410e-15       2.558936325210e-13       0.000000000000e+00       9.355563825575e-11       9.157834089277e-12      -9.032776287576e-15 
   39       1.617490859916e-10       7.006906615846e-15       2.495653702587e-13       0.000000000000e+00       8.875268164665e-11       8.730030046142e-12      -7.999103319884e-15 
   40       1.641920605652e-10       7.630581396433e-15       2.417654532625e-13       0.000000000000e+00       8.429213983909e-11       8.331777604212e-12      -7.043255179377e-15 
   41       1.666411758515e-10       8.289329992040e-15       2.325265067603e-13       0.000000000000e+00       8.011474716407e-11       7.956699106633e-12      -6.480389673723e-15 
   42       1.691021498676e-10       8.983799109000e-15       2.218480065508e-13       0.000000000000e+00       7.620817826103e-11       7.603880253887e-12      -6.316449710159e-15 
   43       1.715851230685e-10       9.714573683870e-15       2.097243802184e-13       0.000000000000e+00       7.256204813104e-11       7.273016374649e-12      -6.452485082070e-15 
   44       1.740984090760e-10       1.048218034780e-14       1.961559406145e-13       0.000000000000e+00       6.914981012226e-11       6.962478549744e-12      -6.762169127655e-15 
   45       1.766477749401e-10       1.128709620393e-14       1.811376089442e-13       0.000000000000e+00       6.593823289474e-11       6.669986329585e-12      -7.117024205247e-15 
   46       1.792346027777e-10       1.212978552300e-14       1.646205947591e-13       0.000000000000e+00       6.292224146909e-11       6.395121754788e-12      -7.475157708377e-15 
   47       1.818567617090e-10       1.301066879630e-14       1.465395983289e-13       0.000000000000e+00       6.009830395038e-11       6.137382106142e-12      -7.816119180807e-15 
   48       1.845087695284e-10       1.393010951529e-14       1.268228420892e-13       0.000000000000e+00       5.745392309280e-11       5.895401783907e-12      -8.116083237768e-15 
   49       1.871815203238e-10       1.488841178401e-14       1.053916087486e-13       0.000000000000e+00       5.496696971161e-11       5.666888655039e-12      -8.347676035437e-15 
   50       1.898658270031e-10       1.588580535461e-14       8.217447631220e-14       0.000000000000e+00       5.261234348623e-11       5.449314592824e-12      -8.490229089063e-15 
   51       1.925648144069e-10       1.692240148444e-14       5.715564995454e-14       0.000000000000e+00       5.038563331110e-11       5.242355742913e-12      -8.564224539989e-15 
   52       1.952844193393e-10       1.799822096986e-14       3.033895087606e-14       0.000000000000e+00       4.828472704117e-11       5.046004612189e-12      -8.605899708838e-15 
   53       1.980297790206e-10       1.911320276713e-14       1.734490284275e-15       0.000000000000e+00       4.630273128141e-11       4.859846275816e-12      -8.657946568047e-15 
   54       2.008051382319e-10       2.026720101301e-14      -2.864110088011e-14       0.000000000000e+00       4.442764961704e-11       4.683030215864e-12      -8.769828910101e-15 
   55       2.036136336377e-10       2.146005949623e-14      -6.077238447408e-14       0.000000000000e+00       4.264604043791e-11       4.514567760813e-12      -8.983900865855e-15 
   56       2.064567967358e-10       2.269186356182e-14      -9.467102267208e-14       0.000000000000e+00       4.095579165115e-11       4.354375447024e-12      -9.288997606692e-15 
   57       2.093347647854e-10       2.396274556656e-14      -1.303559040469e-13       0.000000000000e+00       3.935595587649e-11       4.202441523807e-12      -9.655871121538e-15 
   58       2.122462972943e-10       2.527281294813e-14      -1.678458431720e-13       0.000000000000e+00       3.784288580418e-11       4.058507922710e-12      -1.005014787147e-14 
   59       2.151886783778e-10       2.662214826332e-14      -2.071596603337e-13       0.000000000000e+00       3.641006747444e-11       3.922054781900e-12      -1.043209276381e-14 
   60       2.181576191174e-10       2.801080922612e-14      -2.483162612435e-13       0.000000000000e+00       3.504795355683e-11       3.792284970542e-12      -1.075637312620e-14 
   61       2.211488881164e-10       2.943871134438e-14      -2.913292738456e-13       0.000000000000e+00       3.374661313451e-11       3.668352766423e-12      -1.098229353310e-14 
   62       2.241638517439e-10       3.090524495938e-14      -3.361893716639e-13       0.000000000000e+00       3.250475325334e-11       3.550144880271e-12      -1.110771879035e-14 
   63       2.272050098511e-10       3.240957192319e-14      -3.828781061346e-13       0.000000000000e+00       3.132243572331e-11       3.437648076796e-12      -1.114238114931e-14 
   64       2.302743353519e-10       3.395073180106e-14      -4.313729082480e-13       0.000000000000e+00       3.019836347933e-11       3.330712915327e-12      -1.109817566240e-14 
   65       2.333732314160e-10       3.552763818455e-14      -4.816469955612e-13       0.000000000000e+00       2.912980322621e-11       3.229046020994e-12      -1.098925638942e-14 
   66       2.365024886619e-10       3.713907500458e-14      -5.336692792119e-13       0.000000000000e+00       2.811250808365e-11       3.132202355902e-12      -1.083213260386e-14 
   67       2.396622423505e-10       3.878369284458e-14      -5.874042709309e-13       0.000000000000e+00       2.714064023119e-11       3.039577490310e-12      -1.064576499921e-14 
   68       2.428524163272e-10       4.046015906872e-14      -6.428165155864e-13       0.000000000000e+00       2.620832919055e-11       2.950567127982e-12      -1.044805151141e-14 
   69       2.460742549890e-10       4.216765177261e-14      -6.998851396188e-13       0.000000000000e+00       2.531488623828e-11       2.865100493799e-12      -1.024424287158e-14 
   70       2.493290262609e-10       4.390545975655e-14      -7.585920970008e-13       0.000000000000e+00       2.446051246106e-11       2.783201636709e-12      -1.003634178343e-14 
   71       2.526175324990e-10       4.567283780858e-14      -8.189179268825e-13       0.000000000000e+00       2.364472171792e-11       2.704828348933e-12      -9.826509417668e-15 
   72       2.559400801326e-10       4.746900695148e-14      -8.808417763472e-13       0.000000000000e+00       2.286630511736e-11       2.629868714743e-12      -9.617069281026e-15 
   73       2.592964493066e-10       4.929315468972e-14      -9.443414231672e-13       0.000000000000e+00       2.212329549452e-11       2.558137659240e-12      -9.410511085460e-15 
   74       2.626858635233e-10       5.114443525646e-14      -1.009393298559e-12       0.000000000000e+00       2.141293188831e-11       2.489373497133e-12      -9.209494617251e-15 
   75       2.661069592849e-10       5.302196986056e-14      -1.075972509940e-12       0.000000000000e+00       2.073162401854e-11       2.423234481512e-12      -9.016853606135e-15 
   76       2.695583727904e-10       5.492477776201e-14      -1.144051207812e-12       0.000000000000e+00       2.007584307179e-11       2.359385673550e-12      -8.835244228711e-15 
   77       2.730406906491e-10       5.685155444212e-14      -1.213593292306e-12       0.000000000000e+00       1.944506011693e-11       2.297785468941e-12      -8.666008066539e-15 
   78       2.765548013879e-10       5.880085324241e-14      -1.284558778210e-12       0.000000000000e+00       1.883928147543e-11       2.238445293519e-12      -8.510107869068e-15 
   79       2.801012925356e-10       6.077114979494e-14      -1.356905354182e-12       0.000000000000e+00       1.825815368793e-11       2.181342344344e-12      -8.368461162316e-15 
   80       2.836804329177e-10       6.276084085092e-14      -1.430588371558e-12       0.000000000000e+00       1.770094698607e-11       2.126417990588e-12      -8.241936830941e-15 
   81       2.872921549522e-10       6.476824310929e-14      -1.505560833144e-12       0.000000000000e+00       1.716653876434e-11       2.073576174414e-12      -8.131351700308e-15 
   82       2.909360369451e-10       6.679159204521e-14      -1.581773382025e-12       0.000000000000e+00       1.665339705194e-11       2.022681811861e-12      -8.037467118551e-15 
   83       2.946112853853e-10       6.882904073871e-14      -1.659174290360e-12       0.000000000000e+00       1.615956398465e-11       1.973559193721e-12      -7.960985538644e-15 
   84       2.983171117546e-10       7.087873120830e-14      -1.737710884580e-12       0.000000000000e+00       1.568313139984e-11       1.926036445766e-12      -7.902081065882e-15 
   85       3.020539735116e-10       7.293902456540e-14      -1.817334116976e-12       0.000000000000e+00       1.522379441571e-11       1.880090880874e-12      -7.858909167712e-15 
   86       3.058225073330e-10       7.500830704424e-14      -1.897994734972e-12       0.000000000000e+00       1.478152629657e-11       1.835724923338e-12      -7.828842490047e-15 
   87       3.096231419789e-10       7.708492093569e-14      -1.979641924869e-12       0.000000000000e+00       1.435610109331e-11       1.792921379105e-12      -7.808903840914e-15 
   88       3.134560872198e-10       7.916716463430e-14      -2.062223324779e-12       0.000000000000e+00       1.394708538625e-11       1.751642610767e-12      -7.795754939997e-15 
   89       3.173213227615e-10       8.125329268553e-14      -2.145685037575e-12       0.000000000000e+00       1.355383002800e-11       1.711829712546e-12      -7.785685168194e-15 
   90       3.212185871714e-10       8.334151583281e-14      -2.229971643827e-12       0.000000000000e+00       1.317546188625e-11       1.673401685283e-12      -7.774600317172e-15 
   91       3.251473668043e-10       8.543000106475e-14      -2.315026214745e-12       0.000000000000e+00       1.281087558665e-11       1.636254611429e-12      -7.758011338913e-15 
   92       3.291068847281e-10       8.751687166222e-14      -2.400790325123e-12       0.000000000000e+00       1.245872525558e-11       1.600260830028e-12      -7.731023095271e-15 
   93       3.330963658287e-10       8.960023361952e-14      -2.487204180031e-12       0.000000000000e+00       1.211774370951e-11       1.565300436406e-12      -7.689493607414e-15 
   94       3.371159017863e-10       9.167825935100e-14      -2.574206988587e-12       0.000000000000e+00       1.178777287210e-11       1.531362992497e-12      -7.633735681375e-15 
   95       3.411656963222e-10       9.374911671962e-14      -2.661736670588e-12       0.000000000000e+00       1.146887378633e-11       1.498459659570e-12      -7.565353796769e-15 
   96       3.452457934253e-10       9.581094418845e-14      -2.749729762081e-12       0.000000000000e+00       1.116100926463e-11       1.466591860358e-12      -7.486127964432e-15 
   97       3.493560700694e-10       9.786185122978e-14      -2.838121429860e-12       0.000000000000e+00       1.086404012650e-11       1.435750897767e-12      -7.398018543229e-15 
   98       3.534962289304e-10       9.989991873432e-14      -2.926845485973e-12       0.000000000000e+00       1.057772143616e-11       1.405917573571e-12      -7.303171056876e-15 
   99       3.576657911022e-10       1.019231994204e-13      -3.015834402225e-12       0.000000000000e+00       1.030169874019e-11       1.377061807126e-12      -7.203921010744e-15 
  100       3.618640888148e-10       1.039297182430e-13      -3.105019324681e-12       0.000000000000e+00       1.003550430518e-11       1.349142254066e-12      -7.102798708672e-15 
  101       3.660902581503e-10       1.059174728032e-13      -3.194330088167e-12       0.000000000000e+00       9.778553355332e-12       1.322105925010e-12      -7.002534069787e-15 
  102       3.703432317603e-10       1.078844337571e-13      -3.283695230776e-12       0.000000000000e+00       9.530140310100e-12       1.295887804266e-12      -6.906061445306e-15 
  103       3.746217315826e-10       1.098285452249e-13      -3.373042008371e-12       0.000000000000e+00       9.289435021854e-12       1.270410468535e-12      -6.816524435358e-15 
  104       3.789245369175e-10       1.117477768440e-13      -3.462297419093e-12       0.000000000000e+00       9.055670890828e-12       1.245602159413e-12      -6.736579049074e-15 
  105       3.832513455858e-10       1.136402870533e-13      -3.551391403274e-12       0.000000000000e+00       8.828746254347e-12       1.221454602548e-12      -6.666185604079e-15 
  106       3.876020160642e-10       1.155042827314e-13      -3.640254104839e-12       0.000000000000e+00       8.608697600592e-12       1.197972324523e-12      -6.604526136135e-15 
  107       3.919762983087e-10       1.173379704878e-13      -3.728814925189e-12       0.000000000000e+00       8.395513311915e-12       1.175154720173e-12      -6.550676560881e-15 
