# dimensionless total [l(l+1)/2pi] C_l's
# for l=2 to 3000, i.e. number of multipoles equal to 2999
#
# -> if you prefer output in CAMB/HealPix/LensPix units/order, set 'format' to 'camb' in input file
# -> if you don't want to see such a header, set 'headers' to 'no' in input file
# -> for CMB lensing (phi), these are C_l^phi-phi for the lensing potential.
#    Remember the conversion factors:
#    C_l^dd (deflection) = l(l+1) C_l^phi-phi
#    C_l^gg (shear/convergence) = 1/4 (l(l+1))^2 C_l^phi-phi
#
# 1:l     2:TT                     3:EE                     4:TE                     5:BB                     6:phiphi                 7:TPhi                   8:Ephi               
    2       1.423017764199e-10       4.161488392762e-15       3.794390627636e-13       0.000000000000e+00       8.228446827274e-09       4.314344967050e-10      -1.840050295046e-12 
    3       1.347279460245e-10       5.343116439508e-15       4.237536443178e-13       0.000000000000e+00       5.062547431065e-09       3.069371861695e-10      -1.394940179667e-12 
    4       1.273679721754e-10       4.631366940341e-15       3.945418445622e-13       0.000000000000e+00       3.517594615496e-09       2.326855924854e-10      -9.149127465100e-13 
    5       1.217353372594e-10       3.096268049340e-15       3.342371655825e-13       0.000000000000e+00       2.624624814464e-09       1.838268378825e-10      -5.103210229420e-13 
    6       1.177686518838e-10       1.733668100914e-15       2.672284888060e-13       0.000000000000e+00       2.049774898161e-09       1.495259711999e-10      -2.117256605677e-13 
    7       1.150869874307e-10       9.355748386465e-16       2.077229349683e-13       0.000000000000e+00       1.653542175195e-09       1.243373023881e-10      -2.077145895897e-14 
    8       1.134104787329e-10       6.011298776994e-16       1.619929475752e-13       0.000000000000e+00       1.366636848595e-09       1.052357999033e-10       7.719421294659e-14 
    9       1.124888087149e-10       4.813094107538e-16       1.314078590805e-13       0.000000000000e+00       1.150809552417e-09       9.041299300381e-11       1.052119820268e-13 
   10       1.120954822161e-10       4.102352254365e-16       1.145214262611e-13       0.000000000000e+00       9.835336189801e-10       7.866852914563e-11       8.890053177664e-14 
   11       1.121657835276e-10       3.448776698936e-16       1.084168467856e-13       0.000000000000e+00       8.285438699513e-10       6.949510152426e-11       5.221885693766e-14 
   12       1.125514184278e-10       3.002563208294e-16       1.097383524991e-13       0.000000000000e+00       7.238372635584e-10       6.141130839401e-11       1.272576303471e-14 
   13       1.131994139506e-10       2.876128938383e-16       1.154981741138e-13       0.000000000000e+00       6.378930469634e-10       5.486265030767e-11      -1.755118455974e-14 
   14       1.140564312713e-10       2.993389200224e-16       1.234517611169e-13       0.000000000000e+00       5.663969045255e-10       4.914187904531e-11      -3.426749994040e-14 
   15       1.151117514026e-10       3.236785605188e-16       1.322007732708e-13       0.000000000000e+00       5.062229470528e-10       4.434349224163e-11      -3.748940688890e-14 
   16       1.162928928162e-10       3.579224580952e-16       1.409870453231e-13       0.000000000000e+00       4.550673855010e-10       4.021481465974e-11      -3.107612686465e-14 
   17       1.176194426777e-10       4.075694749866e-16       1.495973308404e-13       0.000000000000e+00       4.111899690316e-10       3.661517318511e-11      -2.016423334323e-14 
   18       1.190300849151e-10       4.781097711570e-16       1.583254155788e-13       0.000000000000e+00       3.731111828291e-10       3.347235632342e-11      -9.646122857179e-15 
   19       1.205357594634e-10       5.699212533072e-16       1.674049751281e-13       0.000000000000e+00       3.402262923949e-10       3.074360876045e-11      -2.158094735933e-15 
   20       1.221253057508e-10       6.810510542622e-16       1.769922524834e-13       0.000000000000e+00       3.112660440765e-10       2.832552664759e-11       5.410270366544e-16 
   21       1.238015917038e-10       8.108684256991e-16       1.870851830603e-13       0.000000000000e+00       2.857748718058e-10       2.617345642552e-11      -1.023305836354e-15 
   22       1.255403004366e-10       9.588867696346e-16       1.975467409632e-13       0.000000000000e+00       2.631425149502e-10       2.422983939329e-11      -5.143040229733e-15 
   23       1.273442733701e-10       1.125337439965e-15       2.080267440187e-13       0.000000000000e+00       2.430574210442e-10       2.248436848674e-11      -1.008535699755e-14 
   24       1.292037390968e-10       1.310479640568e-15       2.180656842564e-13       0.000000000000e+00       2.250548251205e-10       2.092040463116e-11      -1.398862349304e-14 
   25       1.311224833779e-10       1.514345318814e-15       2.273784825641e-13       0.000000000000e+00       2.089226442273e-10       1.952205884911e-11      -1.599978711255e-14 
   26       1.330917552763e-10       1.737128709674e-15       2.357344981064e-13       0.000000000000e+00       1.943685526060e-10       1.825914283996e-11      -1.575349069474e-14 
   27       1.351042180575e-10       1.980824384305e-15       2.430117010181e-13       0.000000000000e+00       1.812176840863e-10       1.711209352010e-11      -1.384636602755e-14 
   28       1.371443297906e-10       2.247978218771e-15       2.491531350453e-13       0.000000000000e+00       1.692430363568e-10       1.605780759745e-11      -1.126865615974e-14 
   29       1.392213335183e-10       2.540076062449e-15       2.542243810794e-13       0.000000000000e+00       1.583833211646e-10       1.509468585653e-11      -8.678508227844e-15 
   30       1.413409369376e-10       2.858271527615e-15       2.583690041123e-13       0.000000000000e+00       1.485217988717e-10       1.421961643418e-11      -6.749561171201e-15 
   31       1.434981311080e-10       3.203656410512e-15       2.617356592116e-13       0.000000000000e+00       1.394571434885e-10       1.342117163863e-11      -6.107220094466e-15 
   32       1.456956776860e-10       3.577154310740e-15       2.642815215430e-13       0.000000000000e+00       1.311424383922e-10       1.269075865760e-11      -6.583211622880e-15 
   33       1.479298146382e-10       3.979573804856e-15       2.658944564296e-13       0.000000000000e+00       1.235187764561e-10       1.201396428438e-11      -7.669105491047e-15 
   34       1.501898332735e-10       4.411670735302e-15       2.664446008858e-13       0.000000000000e+00       1.164793385329e-10       1.137329885674e-11      -8.794526965533e-15 
   35       1.524783559791e-10       4.874299065541e-15       2.657934895327e-13       0.000000000000e+00       1.099880203757e-10       1.077090444973e-11      -9.668553767020e-15 
   36       1.547964056212e-10       5.368303845539e-15       2.637854152882e-13       0.000000000000e+00       1.039926718410e-10       1.021308261924e-11      -1.004893070008e-14 
   37       1.571405342883e-10       5.894483383261e-15       2.602774881576e-13       0.000000000000e+00       9.841518095291e-11       9.703303175587e-12      -9.737887566331e-15 
   38       1.595143070155e-10       6.453610042119e-15       2.552562667407e-13       0.000000000000e+00       9.324110055707e-11       9.239599521457e-12      -8.885732842611e-15 
   39       1.619194434449e-10       7.046409850723e-15       2.487602759173e-13       0.000000000000e+00       8.845398581226e-11       8.815815339082e-12      -7.791232048828e-15 
   40       1.643519898221e-10       7.673552297838e-15       2.408505264353e-13       0.000000000000e+00       8.400813273668e-11       8.421898887247e-12      -6.826424925795e-15 
   41       1.668054770871e-10       8.335669105449e-15       2.315864998850e-13       0.000000000000e+00       7.984449295154e-11       8.046938377805e-12      -6.339157013730e-15 
   42       1.692830478919e-10       9.033426616206e-15       2.209414382504e-13       0.000000000000e+00       7.595078356877e-11       7.690212629569e-12      -6.311132358347e-15 
   43       1.717882856853e-10       9.767470866285e-15       2.088617629688e-13       0.000000000000e+00       7.231664971746e-11       7.353208359443e-12      -6.596514443122e-15 
   44       1.743214826790e-10       1.053840517076e-14       1.952896874360e-13       0.000000000000e+00       6.891562762423e-11       7.036498049920e-12      -7.012271712062e-15 
   45       1.768810316391e-10       1.134678169519e-14       1.801685108406e-13       0.000000000000e+00       6.571459172814e-11       6.739863510036e-12      -7.379098124075e-15 
   46       1.794688798837e-10       1.219307810690e-14       1.634613043296e-13       0.000000000000e+00       6.270848559483e-11       6.462908999001e-12      -7.664175356935e-15 
   47       1.820861410095e-10       1.307771037651e-14       1.451371490598e-13       0.000000000000e+00       5.989379302667e-11       6.204488194471e-12      -7.877184139996e-15 
   48       1.847312859039e-10       1.400103610577e-14       1.251658776654e-13       0.000000000000e+00       5.725806303718e-11       5.962442007016e-12      -8.030979603954e-15 
   49       1.873999099862e-10       1.496335206614e-14       1.035180122577e-13       0.000000000000e+00       5.477924552037e-11       5.733526356154e-12      -8.141783529912e-15 
   50       1.900870411932e-10       1.596489186719e-14       8.016433638316e-14       0.000000000000e+00       5.243232866998e-11       5.514340471884e-12      -8.228346244068e-15 
   51       1.927953424929e-10       1.700582392666e-14       5.507461776397e-14       0.000000000000e+00       5.021291645836e-11       5.304576415345e-12      -8.308718090233e-15 
   52       1.955287335127e-10       1.808624869453e-14       2.821843168879e-14       0.000000000000e+00       4.811890266145e-11       5.104526760257e-12      -8.402933924324e-15 
   53       1.982899338818e-10       1.920619607776e-14      -4.345805925319e-16       0.000000000000e+00       4.614341534935e-11       4.914136614882e-12      -8.534107226554e-15 
   54       2.010803500376e-10       2.036562298484e-14      -3.091479109454e-14       0.000000000000e+00       4.427449616742e-11       4.732978481609e-12      -8.728573863235e-15 
   55       2.039005554979e-10       2.156444862392e-14      -6.324791694238e-14       0.000000000000e+00       4.249874630271e-11       4.560467809351e-12      -9.007097314171e-15 
   56       2.067521307126e-10       2.280267629081e-14      -9.743947640371e-14       0.000000000000e+00       4.081405976578e-11       4.396629951270e-12      -9.355596530305e-15 
   57       2.096360820023e-10       2.408029753492e-14      -1.334866101711e-13       0.000000000000e+00       3.921949156510e-11       4.241479700410e-12      -9.747398057581e-15 
   58       2.125522000242e-10       2.539725609342e-14      -1.713823869883e-13       0.000000000000e+00       3.771140560786e-11       4.094781870173e-12      -1.015133741607e-14 
   59       2.154989696998e-10       2.675344690674e-14      -2.111156979128e-13       0.000000000000e+00       3.628330852730e-11       3.956035531549e-12      -1.053155460718e-14 
   60       2.184734801429e-10       2.814871513415e-14      -2.526711505788e-13       0.000000000000e+00       3.492568350991e-11       3.824458250348e-12      -1.084728962088e-14 
   61       2.214727247475e-10       2.958279091185e-14      -2.960316254947e-13       0.000000000000e+00       3.362863157335e-11       3.699203729651e-12      -1.106227798526e-14 
   62       2.244980462282e-10       3.105507874225e-14      -3.411868546505e-13       0.000000000000e+00       3.239086412594e-11       3.580107483753e-12      -1.117586444478e-14 
   63       2.275515340231e-10       3.256481886872e-14      -3.881265896018e-13       0.000000000000e+00       3.121244319324e-11       3.467081329140e-12      -1.119854198811e-14 
   64       2.306346771222e-10       3.411114439800e-14      -4.368380884976e-13       0.000000000000e+00       3.009207651426e-11       3.359886557249e-12      -1.114306619595e-14 
   65       2.337483181049e-10       3.569307827687e-14      -4.873060948077e-13       0.000000000000e+00       2.902704044696e-11       3.258125577462e-12      -1.102455535035e-14 
   66       2.368926071756e-10       3.730953026881e-14      -5.395128160496e-13       0.000000000000e+00       2.801310287385e-11       3.161233560115e-12      -1.086059054397e-14 
   67       2.400669562011e-10       3.895929393074e-14      -5.934379025156e-13       0.000000000000e+00       2.704444610753e-11       3.068470079495e-12      -1.067131578938e-14 
   68       2.432706287745e-10       4.064116244702e-14      -6.490595247082e-13       0.000000000000e+00       2.611521981150e-11       2.979109459558e-12      -1.047559734867e-14 
   69       2.465047519893e-10       4.235431014481e-14      -7.063579067111e-13       0.000000000000e+00       2.522473748446e-11       2.893075278656e-12      -1.027837426127e-14 
   70       2.497706316061e-10       4.409798320776e-14      -7.653124738460e-13       0.000000000000e+00       2.437319926265e-11       2.810420010018e-12      -1.008091276418e-14 
   71       2.530691229279e-10       4.587138767475e-14      -8.259008240164e-13       0.000000000000e+00       2.356012029731e-11       2.731134478247e-12      -9.884519622571e-15 
   72       2.564006011037e-10       4.767368945639e-14      -8.880987345345e-13       0.000000000000e+00       2.278429534869e-11       2.655144584236e-12      -9.690541451870e-15 
   73       2.597649314317e-10       4.950401435154e-14      -9.518801689481e-13       0.000000000000e+00       2.204376337991e-11       2.582308030075e-12      -9.500364039866e-15 
   74       2.631614396621e-10       5.136144806385e-14      -1.017217283868e-12       0.000000000000e+00       2.133577215090e-11       2.512411043970e-12      -9.315411668802e-15 
   75       2.665888823010e-10       5.324503621821e-14      -1.084080435794e-12       0.000000000000e+00       2.065674281234e-11       2.445165105151e-12      -9.137146437462e-15 
   76       2.700460406979e-10       5.515372999226e-14      -1.152437635009e-12       0.000000000000e+00       2.000315783512e-11       2.380283111409e-12      -8.966983121836e-15 
   77       2.735336940249e-10       5.708621152818e-14      -1.222252777189e-12       0.000000000000e+00       1.937448999725e-11       2.317731156646e-12      -8.806017331542e-15 
   78       2.770529537988e-10       5.904103656593e-14      -1.293487100222e-12       0.000000000000e+00       1.877074566769e-11       2.257516929315e-12      -8.655246319487e-15 
   79       2.806046553815e-10       6.101668492309e-14      -1.366099704100e-12       0.000000000000e+00       1.819157264834e-11       2.199612723481e-12      -8.515646674699e-15 
   80       2.841893410751e-10       6.301155939608e-14      -1.440047546403e-12       0.000000000000e+00       1.763624370175e-11       2.143953792776e-12      -8.388171912476e-15 
   81       2.878072432162e-10       6.502398466149e-14      -1.515285437792e-12       0.000000000000e+00       1.710364007878e-11       2.090436704338e-12      -8.273750064527e-15 
   82       2.914582672701e-10       6.705220617740e-14      -1.591766037495e-12       0.000000000000e+00       1.659223504629e-11       2.038917692766e-12      -8.173281269118e-15 
   83       2.951419749259e-10       6.909438908467e-14      -1.669439848794e-12       0.000000000000e+00       1.610007741476e-11       1.989211014066e-12      -8.087635361211e-15 
   84       2.988578649252e-10       7.114868427899e-14      -1.748255923408e-12       0.000000000000e+00       1.562526547030e-11       1.941135369293e-12      -8.017233772860e-15 
   85       3.026063060749e-10       7.321344161888e-14      -1.828164118675e-12       0.000000000000e+00       1.516749512548e-11       1.894665623724e-12      -7.960720875093e-15 
   86       3.063877286316e-10       7.528703021300e-14      -1.909113208028e-12       0.000000000000e+00       1.472673941121e-11       1.849803338500e-12      -7.916066930191e-15 
   87       3.102023285937e-10       7.736777442175e-14      -1.991050212673e-12       0.000000000000e+00       1.430277278267e-11       1.806530111409e-12      -7.880954939773e-15 
   88       3.140500557990e-10       7.945395388756e-14      -2.073920408985e-12       0.000000000000e+00       1.389516288907e-11       1.764806738731e-12      -7.852771248551e-15 
   89       3.179306020232e-10       8.154380356502e-14      -2.157667335917e-12       0.000000000000e+00       1.350326234339e-11       1.724572377076e-12      -7.828596148101e-15 
   90       3.218433890789e-10       8.363551375121e-14      -2.242232802402e-12       0.000000000000e+00       1.312620049220e-11       1.685743705230e-12      -7.805194480613e-15 
   91       3.257875569134e-10       8.572723011583e-14      -2.327556894753e-12       0.000000000000e+00       1.276287518535e-11       1.648214085998e-12      -7.779006242662e-15 
   92       3.297619517074e-10       8.781705373147e-14      -2.413577984065e-12       0.000000000000e+00       1.241194454574e-11       1.611852728039e-12      -7.746137188963e-15 
   93       3.337654724531e-10       8.990307005459e-14      -2.500233503510e-12       0.000000000000e+00       1.207214518661e-11       1.576536804593e-12      -7.703252545960e-15 
   94       3.377981961652e-10       9.198344078882e-14      -2.587462397858e-12       0.000000000000e+00       1.174331948667e-11       1.542255155951e-12      -7.650432318804e-15 
   95       3.418604006845e-10       9.405632595805e-14      -2.675203057762e-12       0.000000000000e+00       1.142552831922e-11       1.509018706745e-12      -7.588730048240e-15 
   96       3.459522143894e-10       9.611985660865e-14      -2.763392600426e-12       0.000000000000e+00       1.111873467218e-11       1.476828518184e-12      -7.519310924980e-15 
   97       3.500736092157e-10       9.817213523710e-14      -2.851966887579e-12       0.000000000000e+00       1.082279989901e-11       1.445675402295e-12      -7.443454790301e-15 
   98       3.542243936755e-10       1.002112362176e-13      -2.940860543443e-12       0.000000000000e+00       1.053747996947e-11       1.415539536154e-12      -7.362559136647e-15 
   99       3.584042058764e-10       1.022352062295e-13      -3.030006972704e-12       0.000000000000e+00       1.026242172054e-11       1.386390076122e-12      -7.278142108230e-15 
  100       3.626125065409e-10       1.042420646855e-13      -3.119338378485e-12       0.000000000000e+00       9.997159107240e-12       1.358184772085e-12      -7.191845501632e-15 
  101       3.668485720255e-10       1.062298041586e-13      -3.208785780313e-12       0.000000000000e+00       9.741109453472e-12       1.330869581686e-12      -7.105437766408e-15 
  102       3.711114873399e-10       1.081963908101e-13      -3.298279032096e-12       0.000000000000e+00       9.493569702888e-12       1.304378284561e-12      -7.020817005686e-15 
  103       3.754001391661e-10       1.101397648171e-13      -3.387746840087e-12       0.000000000000e+00       9.253712669730e-12       1.278632096576e-12      -6.940013976769e-15 
  104       3.797134473731e-10       1.120578916693e-13      -3.477117360921e-12       0.000000000000e+00       9.020774471117e-12       1.253558201181e-12      -6.864755357181e-15 
  105       3.840511102126e-10       1.139489230303e-13      -3.566320049018e-12       0.000000000000e+00       8.794653734751e-12       1.229149025333e-12      -6.795079890129e-15 
  106       3.884129472427e-10       1.158110585044e-13      -3.655284093398e-12       0.000000000000e+00       8.575386722767e-12       1.205410288987e-12      -6.730540024190e-15 
  107       3.927986655144e-10       1.176424976833e-13      -3.743937883960e-12       0.000000000000e+00       8.362961750132e-12       1.182342627282e-12      -6.670623144966e-15 
