# dimensionless total lensed [l(l+1)/2pi] C_l's
# for l=2 to 2500, i.e. number of multipoles equal to 2499
#
# -> if you prefer output in CAMB/HealPix/LensPix units/order, set 'format' to 'camb' in input file
# -> if you don't want to see such a header, set 'headers' to 'no' in input file
# -> for CMB lensing (phi), these are C_l^phi-phi for the lensing potential.
#    Remember the conversion factors:
#    C_l^dd (deflection) = l(l+1) C_l^phi-phi
#    C_l^gg (shear/convergence) = 1/4 (l(l+1))^2 C_l^phi-phi
#
# 1:l     2:TT                     3:EE                     4:TE                     5:BB                     6:phiphi                 7:TPhi                   8:Ephi               
    2       1.422968466471e-10       4.161700892055e-15       3.794127938896e-13       2.266456191109e-19       8.228442732649e-09       4.314481846628e-10      -1.840048851805e-12 
    3       1.347238355513e-10       5.343551726671e-15       4.237264238832e-13       4.533850113079e-19       5.062558482664e-09       3.069460821596e-10      -1.394938894195e-12 
    4       1.273649701881e-10       4.632106808149e-15       3.945179337358e-13       7.558481958841e-19       3.517602139789e-09       2.326920362552e-10      -9.149120335266e-13 
    5       1.217335809995e-10       3.097391805185e-15       3.342183881446e-13       1.134155041380e-18       2.624629581783e-09       1.838318463928e-10      -5.103207370707e-13 
    6       1.177682565621e-10       1.735251238654e-15       2.672150966891e-13       1.588451066298e-18       2.049778377394e-09       1.495300570866e-10      -2.117256251593e-13 
    7       1.150880191594e-10       9.376913257526e-16       2.077141590888e-13       2.118904754205e-18       1.653544746211e-09       1.243407396900e-10      -2.077161451938e-14 
    8       1.134130326611e-10       6.038542917906e-16       1.619876078404e-13       2.725704516108e-18       1.366638996222e-09       1.052387515136e-10       7.719391029301e-14 
    9       1.124929808974e-10       4.847175240931e-16       1.314046105715e-13       3.409055389608e-18       1.150811549116e-09       9.041557475866e-11       1.052116425540e-13 
   10       1.121013963730e-10       4.144038081898e-16       1.145189679309e-13       4.169175570688e-18       9.835355547231e-10       7.867082925809e-11       8.890029052912e-14 
   11       1.121734981850e-10       3.498838208454e-16       1.084141563701e-13       5.006292876965e-18       8.285452482913e-10       6.949715998753e-11       5.221877998840e-14 
   12       1.125610609122e-10       3.061771415643e-16       1.097346765417e-13       5.920641240844e-18       7.238384758285e-10       6.141315272608e-11       1.272581190541e-14 
   13       1.132110577429e-10       2.945257796208e-16       1.154930194340e-13       6.912457327178e-18       6.378941224032e-10       5.486429480804e-11      -1.755110463383e-14 
   14       1.140702061890e-10       3.073217570051e-16       1.234448022563e-13       7.981977363039e-18       5.663978654605e-10       4.914338218650e-11      -3.426745020658e-14 
   15       1.151277137333e-10       3.328096749458e-16       1.321917860949e-13       9.129434257260e-18       5.062238111578e-10       4.434489338977e-11      -3.748938195076e-14 
   16       1.163111528615e-10       3.682801846247e-16       1.409759174623e-13       1.035505507499e-17       4.550681668656e-10       4.021611023877e-11      -3.107608898346e-14 
   17       1.176400468285e-10       4.192320350391e-16       1.495837946146e-13       1.165905891795e-17       4.111906791489e-10       3.661635555847e-11      -2.016417194811e-14 
   18       1.190531345382e-10       4.911560290271e-16       1.583091989751e-13       1.304165506934e-17       3.731118307134e-10       3.347345502220e-11      -9.646075660640e-15 
   19       1.205613548636e-10       5.844302256253e-16       1.673857849150e-13       1.450304265248e-17       3.402268864460e-10       3.074464706848e-11      -2.158101528770e-15 
   20       1.221535143587e-10       6.971016501765e-16       1.769697331936e-13       1.604340791621e-17       3.112665904402e-10       2.832650203082e-11       5.409477909020e-16 
   21       1.238324852766e-10       8.285396531086e-16       1.870588961890e-13       1.766292664699e-17       2.857753759468e-10       2.617436530922e-11      -1.023439224545e-15 
   22       1.255739678619e-10       9.782577672750e-16       1.975161769257e-13       1.936176119440e-17       2.631429814738e-10       2.423068603447e-11      -5.143172492285e-15 
   23       1.273807993318e-10       1.146487314261e-15       2.079914632894e-13       2.114006428480e-17       2.430578540685e-10       2.248516597160e-11      -1.008545294685e-14 
   24       1.292431972474e-10       1.333487330237e-15       2.180253365466e-13       2.299797599471e-17       2.250552279849e-10       2.092117093562e-11      -1.398868731168e-14 
   25       1.311649398277e-10       1.539289369876e-15       2.273325749065e-13       2.493562920932e-17       2.089230199421e-10       1.952279352112e-11      -1.599983162933e-14 
   26       1.331372731204e-10       1.764087226159e-15       2.356823521959e-13       2.695314597281e-17       1.943689037286e-10       1.825982384549e-11      -1.575352731481e-14 
   27       1.351528730493e-10       2.009875461214e-15       2.429527285157e-13       2.905064273494e-17       1.812180129063e-10       1.711271649923e-11      -1.384640403571e-14 
   28       1.371962142854e-10       2.279200024263e-15       2.490869114655e-13       3.122822785798e-17       1.692433448038e-10       1.605839567517e-11      -1.126870216439e-14 
   29       1.392765381626e-10       2.573546470036e-15       2.541504624511e-13       3.348601017720e-17       1.583836110738e-10       1.509526038286e-11      -8.678567466495e-15 
   30       1.413995438358e-10       2.894067945391e-15       2.582868576610e-13       3.582409185973e-17       1.485220718849e-10       1.422018521624e-11      -6.749637522326e-15 
   31       1.435602119790e-10       3.241855722970e-15       2.616446633423e-13       3.824256837927e-17       1.394574009112e-10       1.342172790901e-11      -6.107314758612e-15 
   32       1.457612930058e-10       3.617832934597e-15       2.641810450711e-13       4.074153931635e-17       1.311426814600e-10       1.269129268581e-11      -6.583319066779e-15 
   33       1.479990119049e-10       4.022807669836e-15       2.657838886148e-13       4.332110139711e-17       1.235190063162e-10       1.201446698445e-11      -7.669210903087e-15 
   34       1.502626499574e-10       4.457535238461e-15       2.663233596003e-13       4.598134719746e-17       1.164795561619e-10       1.137376284573e-11      -8.794608539112e-15 
   35       1.525548401285e-10       4.922869040951e-15       2.656610219231e-13       4.872237049204e-17       1.099882266924e-10       1.077132748649e-11      -9.668599764115e-15 
   36       1.548766253814e-10       5.419653522170e-15       2.636412043261e-13       5.154426289124e-17       1.039928676754e-10       1.021346963289e-11      -1.004894720981e-14 
   37       1.572245766279e-10       5.948686325516e-15       2.601210536977e-13       5.444711203785e-17       9.841536700211e-11       9.703665852197e-12      -9.737897418125e-15 
   38       1.596022541501e-10       6.510739047932e-15       2.550871391040e-13       5.743099989095e-17       9.324127749677e-11       9.239949327291e-12      -8.885756545533e-15 
   39       1.620113641867e-10       7.106536875310e-15       2.485779880281e-13       6.049600400596e-17       8.845415429419e-11       8.816160924191e-12      -7.791280755212e-15 
   40       1.644479366491e-10       7.736748386256e-15       2.406546131313e-13       6.364219807383e-17       8.400829333822e-11       8.422245163109e-12      -6.826498001063e-15 
   41       1.669054863821e-10       8.402004327514e-15       2.313765054090e-13       6.686964913640e-17       7.984464615228e-11       8.047286279661e-12      -6.339242664795e-15 
   42       1.693871514027e-10       9.102970014169e-15       2.207169518316e-13       7.017840799577e-17       7.595092982909e-11       7.690561356960e-12      -6.311219020173e-15 
   43       1.718965140871e-10       9.840290390543e-15       2.086224352224e-13       7.356851578557e-17       7.231678948090e-11       7.353555836000e-12      -6.596594639762e-15 
   44       1.744338661215e-10       1.061456760991e-14       1.950352396532e-13       7.704000641493e-17       6.891576128907e-11       7.036840690022e-12      -7.012343061291e-15 
   45       1.769976001127e-10       1.142635262076e-14       1.798987410455e-13       8.059290289717e-17       6.571471963562e-11       6.740196441331e-12      -7.379163112381e-15 
   46       1.795896628916e-10       1.227612187137e-14       1.631760814608e-13       8.422720534974e-17       6.270860807869e-11       6.463227846123e-12      -7.664236842764e-15 
   47       1.822111677884e-10       1.316429007107e-14       1.448364162139e-13       8.794289917366e-17       5.989391041584e-11       6.204789745864e-12      -7.877243955914e-15 
   48       1.848605858660e-10       1.409121350240e-14       1.248496589161e-13       9.173995794473e-17       5.725817563997e-11       5.962724466703e-12      -8.031038326154e-15 
   49       1.875335131854e-10       1.505718755884e-14       1.031864196969e-13       9.561834307295e-17       5.477935360751e-11       5.733789609333e-12      -8.141840234668e-15 
   50       1.902249780632e-10       1.606244434964e-14       7.981757458101e-14       9.957800337555e-17       5.243243246925e-11       5.514586029951e-12      -8.228398733898e-15 
   51       1.929376411125e-10       1.710715046018e-14       5.471297914383e-14       1.036188744494e-16       5.021301619087e-11       5.304806264561e-12      -8.308764709812e-15 
   52       1.956754187136e-10       1.819140432754e-14       2.784229890533e-14       1.077408785396e-16       4.811899854550e-11       5.104743033082e-12      -8.402974195594e-15 
   53       1.984410270380e-10       1.931523371944e-14      -8.247295992421e-16       1.119439242745e-16       4.614350759191e-11       4.914341567832e-12      -8.534142048213e-15 
   54       2.012358688428e-10       2.047859327516e-14      -3.131837795461e-14       1.162279063212e-16       4.427458495504e-11       4.733174471205e-12      -8.728605719893e-15 
   55       2.040605142686e-10       2.168139985207e-14      -6.366425663593e-14       1.205927131183e-16       4.249883179883e-11       4.560657190056e-12      -9.007130000089e-15 
   56       2.069165424495e-10       2.292365448132e-14      -9.786776770704e-14       1.250382531120e-16       4.081414213072e-11       4.396814721078e-12      -9.355633253562e-15 
   57       2.098049591093e-10       2.420534640120e-14      -1.339259284503e-13       1.295644344341e-16       3.921957095799e-11       4.241661332754e-12      -9.747440778407e-15 
   58       2.127255545373e-10       2.552641694125e-14      -1.718316777796e-13       1.341711573667e-16       3.771148218175e-11       4.094961211674e-12      -1.015138663557e-14 
   59       2.156768135253e-10       2.688675853603e-14      -2.115737703747e-13       1.388583143114e-16       3.628338242393e-11       3.956212694890e-12      -1.053160914645e-14 
   60       2.186558253048e-10       2.828621373902e-14      -2.531366708151e-13       1.436257897605e-16       3.492575485424e-11       3.824632502279e-12      -1.084734639047e-14 
   61       2.216595833404e-10       2.972451006230e-14      -2.965031164944e-13       1.484734754191e-16       3.362870047282e-11       3.699373625594e-12      -1.106233229224e-14 
   62       2.246894293898e-10       3.120104963569e-14      -3.416627181035e-13       1.534013196089e-16       3.239093068605e-11       3.580271817922e-12      -1.117591207533e-14 
   63       2.277474516819e-10       3.271507036949e-14      -3.886051105429e-13       1.584092889512e-16       3.121250751999e-11       3.467239444386e-12      -1.119857989783e-14 
   64       2.308351380298e-10       3.426570299994e-14      -4.373174337224e-13       1.634973546344e-16       3.009213871159e-11       3.360038422624e-12      -1.114309269575e-14 
   65       2.339533298667e-10       3.585196806680e-14      -4.877843113738e-13       1.686654928650e-16       2.902710061419e-11       3.258271868888e-12      -1.102457030001e-14 
   66       2.371021762823e-10       3.747277289101e-14      -5.399878298627e-13       1.739136853184e-16       2.801316110285e-11       3.161375744159e-12      -1.086059555350e-14 
   67       2.402810880586e-10       3.912690855233e-14      -5.939075170016e-13       1.792419195898e-16       2.704450247980e-11       3.068610500251e-12      -1.067131442811e-14 
   68       2.434893267092e-10       4.081316587641e-14      -6.495214158587e-13       1.846501978883e-16       2.611527439811e-11       2.979251172406e-12      -1.047559483494e-14 
   69       2.467280129376e-10       4.253071744294e-14      -7.068096062078e-13       1.901385641567e-16       2.522479035548e-11       2.893221058153e-12      -1.027837545453e-14 
   70       2.499984444438e-10       4.427880790855e-14      -7.657513618332e-13       1.957070832823e-16       2.437325048875e-11       2.810572021126e-12      -1.008092152302e-14 
   71       2.533014677386e-10       4.605664186711e-14      -8.263241253614e-13       2.013558339895e-16       2.356016994850e-11       2.731294185597e-12      -9.884538653802e-15 
   72       2.566374484209e-10       4.786338387107e-14      -8.885035150784e-13       2.070849095014e-16       2.278434349294e-11       2.655312657942e-12      -9.690572153835e-15 
   73       2.600062414537e-10       4.969815845281e-14      -9.522633317472e-13       2.128944182019e-16       2.204381008175e-11       2.582484248109e-12      -9.500406340029e-15 
   74       2.634071614409e-10       5.156005014603e-14      -1.017575565426e-12       2.187844842968e-16       2.133581746995e-11       2.512594191078e-12      -9.315463855570e-15 
   75       2.668389529039e-10       5.344810350708e-14      -1.084410402283e-12       2.247552484760e-16       2.065678680174e-11       2.445352868332e-12      -9.137204986279e-15 
   76       2.703003862841e-10       5.536126874155e-14      -1.152735681003e-12       2.308068617329e-16       2.000320054162e-11       2.380472240390e-12      -8.967042993612e-15 
   77       2.737922371277e-10       5.729822708979e-14      -1.222515132480e-12       2.369394640591e-16       1.937453146682e-11       2.317918482762e-12      -8.806073800274e-15 
   78       2.773156154899e-10       5.925753349048e-14      -1.293709830019e-12       2.431532030489e-16       1.877078594641e-11       2.257699676982e-12      -8.655295540403e-15 
   79       2.808713556085e-10       6.123766707422e-14      -1.366278706873e-12       2.494482409095e-16       1.819161178178e-11       2.199788569136e-12      -8.515685803044e-15 
   80       2.844599990117e-10       6.323703006947e-14      -1.440178551777e-12       2.558247549824e-16       1.763628173423e-11       2.144120925871e-12      -8.388199226352e-15 
   81       2.880817776249e-10       6.525394670849e-14      -1.515364004476e-12       2.622829382646e-16       1.710367705264e-11       2.090593890395e-12      -8.273765091793e-15 
   82       2.917365968794e-10       6.728666213334e-14      -1.591787551257e-12       2.688229999306e-16       1.659227100108e-11       2.039064338487e-12      -8.173284918348e-15 
   83       2.954240188192e-10       6.933334130176e-14      -1.669399520481e-12       2.754451658529e-16       1.610011238646e-11       1.989347234501e-12      -8.087630056713e-15 
   84       2.991435420267e-10       7.139213501586e-14      -1.748148791936e-12       2.821496754069e-16       1.562529949139e-11       1.941261929863e-12      -8.017223235965e-15 
   85       3.028955317212e-10       7.346139298157e-14      -1.827985069806e-12       2.889367701320e-16       1.516752822797e-11       1.894783478464e-12      -7.960708768010e-15 
   86       3.066804135962e-10       7.553948422820e-14      -1.908856980073e-12       2.958067041379e-16       1.472677162716e-11       1.849913508606e-12      -7.916056455300e-15 
   87       3.104983789830e-10       7.762473315982e-14      -1.990711397609e-12       3.027597481064e-16       1.430280414380e-11       1.806633684955e-12      -7.880948778008e-15 
   88       3.143493729470e-10       7.971541958922e-14      -2.073493453705e-12       3.097961897509e-16       1.389519342635e-11       1.764904870307e-12      -7.852771495831e-15 
   89       3.182330823829e-10       8.180977877203e-14      -2.157146543598e-12       3.169163342748e-16       1.350329208668e-11       1.724666287348e-12      -7.828604249802e-15 
   90       3.221489241121e-10       8.390600144076e-14      -2.241612333999e-12       3.241205048310e-16       1.312622946973e-11       1.685834680414e-12      -7.805211164090e-15 
   91       3.260960329779e-10       8.600223383885e-14      -2.326830770623e-12       3.314090429801e-16       1.276290342332e-11       1.648303477256e-12      -7.779031447811e-15 
   92       3.300732499421e-10       8.809657775475e-14      -2.412740085712e-12       3.387823091498e-16       1.241197206788e-11       1.611941950800e-12      -7.746169996833e-15 
   93       3.340794688046e-10       9.018711972626e-14      -2.499277581374e-12       3.462406903818e-16       1.207217201427e-11       1.576627288205e-12      -7.703291280076e-15 
   94       3.381147618678e-10       9.227202360390e-14      -2.586382097993e-12       3.537846239080e-16       1.174334564096e-11       1.542348135992e-12      -7.650475198590e-15 
   95       3.421794023512e-10       9.434945203685e-14      -2.673991932714e-12       3.614145779851e-16       1.142555382142e-11       1.509115150752e-12      -7.588775370155e-15 
   96       3.462735139649e-10       9.641753897173e-14      -2.762044114646e-12       3.691310454741e-16       1.111875954357e-11       1.476929098112e-12      -7.519357076814e-15 
   97       3.503970639291e-10       9.847439008708e-14      -2.850474423041e-12       3.769345443991e-16       1.082282416061e-11       1.445780466203e-12      -7.443500265914e-15 
   98       3.545498559922e-10       1.005180832279e-13      -2.939217405473e-12       3.848256185062e-16       1.053750364189e-11       1.415649079137e-12      -7.362602551158e-15 
   99       3.587315234505e-10       1.025466688399e-13      -3.028206396009e-12       3.928048378229e-16       1.026244482373e-11       1.386503710487e-12      -7.278182213639e-15 
  100       3.629415221668e-10       1.045581704043e-13      -3.117373533394e-12       4.008727992163e-16       9.997181660280e-12       1.358301696753e-12      -7.191881202895e-15 
  101       3.671791235892e-10       1.065505848723e-13      -3.206649779223e-12       4.090301269528e-16       9.741131474330e-12       1.330988550844e-12      -7.105468137946e-15 
  102       3.714434077702e-10       1.085218830989e-13      -3.295964936118e-12       4.172774732567e-16       9.493591208188e-12       1.304497575549e-12      -7.020841308339e-15 
  103       3.757332563856e-10       1.104700102785e-13      -3.385247665909e-12       4.256155188691e-16       9.253733674500e-12       1.278749477014e-12      -6.940031675199e-15 
  104       3.800475842635e-10       1.123929373584e-13      -3.474426083636e-12       4.340449543173e-16       9.020794988917e-12       1.253671046703e-12      -6.864766113348e-15 
  105       3.843860846277e-10       1.142888222566e-13      -3.563429591804e-12       4.425664196368e-16       8.794673778974e-12       1.229254913961e-12      -6.795083480394e-15 
  106       3.887485719798e-10       1.161558713342e-13      -3.652187328953e-12       4.511805575111e-16       8.575406306910e-12       1.205507182136e-12      -6.730536323256e-15 
  107       3.931347482714e-10       1.179922913424e-13      -3.740627640162e-12       4.598880321764e-16       8.362980887696e-12       1.182428906031e-12      -6.670612133425e-15 
