# dimensionless total [l(l+1)/2pi] C_l's
# for l=2 to 3000, i.e. number of multipoles equal to 2999
#
# -> if you prefer output in CAMB/HealPix/LensPix units/order, set 'format' to 'camb' in input file
# -> if you don't want to see such a header, set 'headers' to 'no' in input file
# -> for CMB lensing (phi), these are C_l^phi-phi for the lensing potential.
#    Remember the conversion factors:
#    C_l^dd (deflection) = l(l+1) C_l^phi-phi
#    C_l^gg (shear/convergence) = 1/4 (l(l+1))^2 C_l^phi-phi
#
# 1:l     2:TT                     3:EE                     4:TE                     5:BB                     6:phiphi                 7:TPhi                   8:Ephi               
    2       1.423287867612e-10       4.161446109269e-15       3.795126320996e-13       0.000000000000e+00       8.228573110398e-09       4.314230722310e-10      -1.840046434035e-12 
    3       1.347547992224e-10       5.343072635487e-15       4.238337105725e-13       0.000000000000e+00       5.062839302770e-09       3.069344848743e-10      -1.394934790133e-12 
    4       1.273937034108e-10       4.631331430811e-15       3.946166033704e-13       0.000000000000e+00       3.517817700070e-09       2.326858479983e-10      -9.149096431499e-13 
    5       1.217596192828e-10       3.096248310250e-15       3.343018860373e-13       0.000000000000e+00       2.624794506388e-09       1.838286494268e-10      -5.103203760729e-13 
    6       1.177913730789e-10       1.733661263147e-15       2.672820470566e-13       0.000000000000e+00       2.049914284691e-09       1.495285005784e-10      -2.117269194074e-13 
    7       1.151080617392e-10       9.355731071969e-16       2.077661025256e-13       0.000000000000e+00       1.653659040970e-09       1.243400555686e-10      -2.077402384131e-14 
    8       1.134299169645e-10       6.011280484454e-16       1.620273855505e-13       0.000000000000e+00       1.366739495660e-09       1.052388392643e-10       7.719091860813e-14 
    9       1.125066370240e-10       4.813069583625e-16       1.314355874438e-13       0.000000000000e+00       1.150903153898e-09       9.041633102941e-11       1.052084426788e-13 
   10       1.121117498052e-10       4.102345445145e-16       1.145444913134e-13       0.000000000000e+00       9.836205392784e-10       7.867185289640e-11       8.889710972146e-14 
   11       1.121805132379e-10       3.448811810600e-16       1.084370565064e-13       0.000000000000e+00       8.286094502683e-10       6.949783464655e-11       5.221586952484e-14 
   12       1.125646220217e-10       3.002649767767e-16       1.097571664057e-13       0.000000000000e+00       7.238967265210e-10       6.141375594874e-11       1.272321186835e-14 
   13       1.132110814129e-10       2.876266918312e-16       1.155168742061e-13       0.000000000000e+00       6.379472995163e-10       5.486488723608e-11      -1.755324077633e-14 
   14       1.140666787482e-10       2.993578713445e-16       1.234714377184e-13       0.000000000000e+00       5.664466658404e-10       4.914401755022e-11      -3.426897837713e-14 
   15       1.151205702694e-10       3.237032820773e-16       1.322222048451e-13       0.000000000000e+00       5.062687828224e-10       4.434547915148e-11      -3.749042152952e-14 
   16       1.163003066458e-10       3.579541264156e-16       1.410109225038e-13       0.000000000000e+00       4.551097841666e-10       4.021664914150e-11      -3.107674886595e-14 
   17       1.176254835135e-10       4.076093976113e-16       1.496240660141e-13       0.000000000000e+00       4.112293293772e-10       3.661685869636e-11      -2.016463032314e-14 
   18       1.190347805506e-10       4.781599153581e-16       1.583552379871e-13       0.000000000000e+00       3.731478258641e-10       3.347393884846e-11      -9.646473468475e-15 
   19       1.205391514045e-10       5.699833280169e-16       1.674380201411e-13       0.000000000000e+00       3.402605285064e-10       3.074512834165e-11      -2.158567406335e-15 
   20       1.221274383574e-10       6.811262459199e-16       1.770285631010e-13       0.000000000000e+00       3.112981011670e-10       2.832698377386e-11       5.402869868419e-16 
   21       1.238025078998e-10       8.109587096382e-16       1.871247654066e-13       0.000000000000e+00       2.858049593012e-10       2.617481748909e-11      -1.024392141380e-15 
   22       1.255400322406e-10       9.589951666901e-16       1.975895816891e-13       0.000000000000e+00       2.631708135704e-10       2.423104917897e-11      -5.144456642555e-15 
   23       1.273428541793e-10       1.125466257367e-15       2.080727999843e-13       0.000000000000e+00       2.430840961215e-10       2.248542992003e-11      -1.008700947676e-14 
   24       1.292012029611e-10       1.310630010677e-15       2.181148631255e-13       0.000000000000e+00       2.250800120438e-10       2.092139120082e-11      -1.399035408949e-14 
   25       1.311188695203e-10       1.514518807298e-15       2.274305704084e-13       0.000000000000e+00       2.089464693548e-10       1.952299054118e-11      -1.600145698251e-14 
   26       1.330871044428e-10       1.737327843083e-15       2.357891701308e-13       0.000000000000e+00       1.943911265972e-10       1.825995997575e-11      -1.575501407495e-14 
   27       1.350985654645e-10       1.981052105384e-15       2.430687463436e-13       0.000000000000e+00       1.812391061584e-10       1.711278617191e-11      -1.384769696421e-14 
   28       1.371377033299e-10       2.248237731823e-15       2.492125182877e-13       0.000000000000e+00       1.692633885009e-10       1.605844762256e-11      -1.126978947880e-14 
   29       1.392137750480e-10       2.540370826831e-15       2.542860622420e-13       0.000000000000e+00       1.584026839954e-10       1.509533408626e-11      -8.679473379554e-15 
   30       1.413325093059e-10       2.858605262878e-15       2.584328735758e-13       0.000000000000e+00       1.485402478179e-10       1.422028476565e-11      -6.750425804376e-15 
   31       1.434889120850e-10       3.204033004295e-15       2.618015367883e-13       0.000000000000e+00       1.394747412546e-10       1.342182238708e-11      -6.108084148964e-15 
   32       1.456857287709e-10       3.577577367697e-15       2.643492143169e-13       0.000000000000e+00       1.311592445915e-10       1.269135617342e-11      -6.584153276191e-15 
   33       1.479191643557e-10       3.980046404086e-15       2.659637800038e-13       0.000000000000e+00       1.235348449224e-10       1.201449405531e-11      -7.670155963378e-15 
   34       1.501784777933e-10       4.412195557619e-15       2.665153826975e-13       0.000000000000e+00       1.164947130719e-10       1.137376824378e-11      -8.795667099091e-15 
   35       1.524663004546e-10       4.874879524097e-15       2.658655608552e-13       0.000000000000e+00       1.100027433295e-10       1.077132491800e-11      -9.669746752333e-15 
   36       1.547836790272e-10       5.368944580407e-15       2.638586110322e-13       0.000000000000e+00       1.040067834242e-10       1.021346410753e-11      -1.005013081337e-14 
   37       1.571271887966e-10       5.895190195714e-15       2.603516491791e-13       0.000000000000e+00       9.842871673563e-11       9.703653671765e-12      -9.739044453832e-15 
   38       1.595004001665e-10       6.454388755352e-15       2.553312399179e-13       0.000000000000e+00       9.325409565560e-11       9.239926016912e-12      -8.886813288303e-15 
   39       1.619050318333e-10       7.047265888362e-15       2.488359159626e-13       0.000000000000e+00       8.846647403864e-11       8.816123780731e-12      -7.792230465003e-15 
   40       1.643371271952e-10       7.674490537257e-15       2.409266984626e-13       0.000000000000e+00       8.402014361223e-11       8.422193716004e-12      -6.827369678646e-15 
   41       1.667902128623e-10       8.336693960132e-15       2.316630731480e-13       0.000000000000e+00       7.985605039368e-11       8.047222201289e-12      -6.340107010032e-15 
   42       1.692674274609e-10       9.034542918412e-15       2.210182496559e-13       0.000000000000e+00       7.596191089186e-11       7.690486433468e-12      -6.312139641924e-15 
   43       1.717723492570e-10       9.768684193476e-15       2.089386011751e-13       0.000000000000e+00       7.232736992788e-11       7.353471297204e-12      -6.597610389133e-15 
   44       1.743052634926e-10       1.053972196220e-14       1.953662845616e-13       0.000000000000e+00       6.892596182383e-11       7.036747056008e-12      -7.013462112767e-15 
   45       1.768645558546e-10       1.134820912761e-14       1.802445512958e-13       0.000000000000e+00       6.572455839416e-11       6.740093639444e-12      -7.380363302763e-15 
   46       1.794521723714e-10       1.219462314595e-14       1.635364922840e-13       0.000000000000e+00       6.271810311375e-11       6.463116258317e-12      -7.665487860707e-15 
   47       1.820692268135e-10       1.307937941718e-14       1.452112339654e-13       0.000000000000e+00       5.990307972168e-11       6.204670587389e-12      -7.878513602460e-15 
   48       1.847141900586e-10       1.400283483163e-14       1.252386641933e-13       0.000000000000e+00       5.726703619889e-11       5.962599915154e-12      -8.032292746849e-15 
   49       1.873826573244e-10       1.496528530073e-14       1.035893707572e-13       0.000000000000e+00       5.478792036325e-11       5.733662940165e-12      -8.143044173637e-15 
   50       1.900696567522e-10       1.596696367902e-14       8.023419368911e-14       0.000000000000e+00       5.244071799562e-11       5.514461395509e-12      -8.229518266817e-15 
   51       1.927778539282e-10       1.700803859337e-14       5.514288155033e-14       0.000000000000e+00       5.022103283794e-11       5.304687274610e-12      -8.309778155866e-15 
   52       1.955111720333e-10       1.808861102783e-14       2.828496413985e-14       0.000000000000e+00       4.812675865435e-11       5.104632219681e-12      -8.403877108495e-15 
   53       1.982723346450e-10       1.920871151212e-14      -3.699709320795e-16       0.000000000000e+00       4.615102296380e-11       4.914240174339e-12      -8.534950078635e-15 
   54       2.010627525626e-10       2.036829767084e-14      -3.085235789713e-14       0.000000000000e+00       4.428186628355e-11       4.733082230670e-12      -8.729357615475e-15 
   55       2.038830025681e-10       2.156728940654e-14      -6.318797247068e-14       0.000000000000e+00       4.250588849754e-11       4.560572409389e-12      -9.007884050640e-15 
   56       2.067346622570e-10       2.280569029828e-14      -9.738234674032e-14       0.000000000000e+00       4.082098354684e-11       4.396735395848e-12      -9.356441849808e-15 
   57       2.096187327844e-10       2.408349206836e-14      -1.334326221199e-13       0.000000000000e+00       3.922620647957e-11       4.241585468787e-12      -9.748341661099e-15 
   58       2.125349987137e-10       2.540063862765e-14      -1.713318666490e-13       0.000000000000e+00       3.771792092302e-11       4.094886854344e-12      -1.015240024015e-14 
   59       2.154819379044e-10       2.675702509115e-14      -2.110689691915e-13       0.000000000000e+00       3.628963289049e-11       3.956137960117e-12      -1.053273582451e-14 
   60       2.184566313994e-10       2.815249679339e-14      -2.526285336335e-13       0.000000000000e+00       3.493182458815e-11       3.824555609233e-12      -1.084856350810e-14 
   61       2.214560655692e-10       2.958678400915e-14      -2.959934342922e-13       0.000000000000e+00       3.363459599874e-11       3.699292939514e-12      -1.106359675239e-14 
   62       2.244815839488e-10       3.105929122028e-14      -3.411533917689e-13       0.000000000000e+00       3.239665848493e-11       3.580185922074e-12      -1.117718081350e-14 
   63       2.275352793045e-10       3.256925858526e-14      -3.880981430514e-13       0.000000000000e+00       3.121807417117e-11       3.467147192482e-12      -1.119981623862e-14 
   64       2.306186445282e-10       3.411581909535e-14      -4.368149292237e-13       0.000000000000e+00       3.009755072449e-11       3.359938985334e-12      -1.114426756987e-14 
   65       2.337325266996e-10       3.569799555010e-14      -4.872884741020e-13       0.000000000000e+00       2.903236424995e-11       3.258164782334e-12      -1.102566351426e-14 
   66       2.368770811498e-10       3.731469753279e-14      -5.395009628712e-13       0.000000000000e+00       2.801828218615e-11       3.161260960372e-12      -1.086159711348e-14 
   67       2.400517255232e-10       3.896471838587e-14      -5.934320207214e-13       0.000000000000e+00       2.704948620074e-11       3.068488439608e-12      -1.067222591387e-14 
   68       2.432557282710e-10       4.064685109854e-14      -6.490597975656e-13       0.000000000000e+00       2.612012530281e-11       2.979122690477e-12      -1.047642844373e-14 
   69       2.464902152794e-10       4.236026999783e-14      -7.063645251746e-13       0.000000000000e+00       2.522951296967e-11       2.893087131242e-12      -1.027914537810e-14 
   70       2.497564891819e-10       4.410422132010e-14      -7.653256457445e-13       0.000000000000e+00       2.437784941942e-11       2.810433659403e-12      -1.008164152499e-14 
   71       2.530554017259e-10       4.587791115839e-14      -8.259207763893e-13       0.000000000000e+00       2.356464979346e-11       2.731152428478e-12      -9.885221887207e-15 
   72       2.563873240617e-10       4.768050547912e-14      -8.881257160656e-13       0.000000000000e+00       2.278870874553e-11       2.655168569206e-12      -9.691230970512e-15 
   73       2.597521170312e-10       4.951113013875e-14      -9.519144524983e-13       0.000000000000e+00       2.204806503073e-11       2.582338910743e-12      -9.501052091837e-15 
   74       2.631491014565e-10       5.136887090048e-14      -1.017259169105e-12       0.000000000000e+00       2.133996609452e-11       2.512448701863e-12      -9.316106687436e-15 
   75       2.665770284286e-10       5.325277345093e-14      -1.084130251920e-12       0.000000000000e+00       2.066083266177e-11       2.445208332154e-12      -9.137853621069e-15 
   76       2.700346744885e-10       5.516178899929e-14      -1.152495736056e-12       0.000000000000e+00       2.000714678245e-11       2.380329753289e-12      -8.967704566328e-15 
   77       2.735228181501e-10       5.709459958497e-14      -1.222319513239e-12       0.000000000000e+00       1.937838120269e-11       2.317779079405e-12      -8.806753868661e-15 
   78       2.770425715005e-10       5.904976079629e-14      -1.293562808473e-12       0.000000000000e+00       1.877454232587e-11       2.257564306708e-12      -8.655997936613e-15 
   79       2.805947706591e-10       6.102575228052e-14      -1.366184707007e-12       0.000000000000e+00       1.819527793738e-11       2.199658081945e-12      -8.516412423790e-15 
   80       2.841799588803e-10       6.302097664468e-14      -1.440142149776e-12       0.000000000000e+00       1.763986072988e-11       2.143996057907e-12      -8.388949816064e-15 
   81       2.877983696555e-10       6.503375835639e-14      -1.515389928825e-12       0.000000000000e+00       1.710717182851e-11       2.090475248954e-12      -8.274537018788e-15 
   82       2.914499098164e-10       6.706234264463e-14      -1.591880682748e-12       0.000000000000e+00       1.659568431619e-11       2.038952386519e-12      -8.174072943998e-15 
   83       2.951341426372e-10       6.910489440061e-14      -1.669564892115e-12       0.000000000000e+00       1.610344675881e-11       1.989242274624e-12      -8.088426097629e-15 
   84       2.988505683877e-10       7.115956428366e-14      -1.748391586470e-12       0.000000000000e+00       1.562855720299e-11       1.941164086993e-12      -8.018016884208e-15 
   85       3.025995564447e-10       7.322470203858e-14      -1.828310609994e-12       0.000000000000e+00       1.517071154198e-11       1.894692679097e-12      -7.961490245078e-15 
   86       3.063815374424e-10       7.529867669093e-14      -1.909270724813e-12       0.000000000000e+00       1.472988282380e-11       1.849829461981e-12      -7.916817524866e-15 
   87       3.101967078391e-10       7.737981251594e-14      -1.991218940108e-12       0.000000000000e+00       1.430584549101e-11       1.806555864571e-12      -7.881682935283e-15 
   88       3.140450180182e-10       7.946638906883e-14      -2.074100519510e-12       0.000000000000e+00       1.389816714912e-11       1.764832494926e-12      -7.853474162800e-15 
   89       3.179261603902e-10       8.155664121512e-14      -2.157858988490e-12       0.000000000000e+00       1.350620033512e-11       1.724598301490e-12      -7.829272976315e-15 
   90       3.218395574950e-10       8.364875916093e-14      -2.242436141750e-12       0.000000000000e+00       1.312907428594e-11       1.685769734349e-12      -7.805845834829e-15 
   91       3.257843501029e-10       8.574088848328e-14      -2.327772050614e-12       0.000000000000e+00       1.276568670695e-11       1.648239906485e-12      -7.779634495115e-15 
   92       3.297593853169e-10       8.783113016044e-14      -2.413805070417e-12       0.000000000000e+00       1.241469554041e-11       1.611877755029e-12      -7.746746619388e-15 
   93       3.337635628680e-10       8.991756952467e-14      -2.500472623492e-12       0.000000000000e+00       1.207483722949e-11       1.576560227441e-12      -7.703849046411e-15 
   94       3.377969594236e-10       9.199836803596e-14      -2.587713666764e-12       0.000000000000e+00       1.174595414444e-11       1.542276199249e-12      -7.651021686390e-15 
   95       3.418598521629e-10       9.407168543136e-14      -2.675466610672e-12       0.000000000000e+00       1.142810718112e-11       1.509036707510e-12      -7.589317483813e-15 
   96       3.459523687630e-10       9.613565245392e-14      -2.763668594443e-12       0.000000000000e+00       1.112125933448e-11       1.476842938229e-12      -7.519900957096e-15 
   97       3.500744804172e-10       9.818837128002e-14      -2.852255504131e-12       0.000000000000e+00       1.082527194883e-11       1.445685840943e-12      -7.444051196971e-15 
   98       3.542259948535e-10       1.002279159467e-13      -2.941161990651e-12       0.000000000000e+00       1.053990096801e-11       1.415545743299e-12      -7.363164864867e-15 
   99       3.584065493535e-10       1.022523327790e-13      -3.030321487818e-12       0.000000000000e+00       1.026479318567e-11       1.386391965639e-12      -7.278759191299e-15 
  100       3.626156037709e-10       1.042596408172e-13      -3.119666230389e-12       0.000000000000e+00       9.999482495493e-12       1.358182435578e-12      -7.192474974248e-15 
  101       3.668524335503e-10       1.062478322443e-13      -3.209127272092e-12       0.000000000000e+00       9.743386141405e-12       1.330863302593e-12      -7.106079577548e-15 
  102       3.711161227458e-10       1.082148728131e-13      -3.298634503672e-12       0.000000000000e+00       9.495800967846e-12       1.304368552597e-12      -7.021469929266e-15 
  103       3.754055570395e-10       1.101587022738e-13      -3.388116670924e-12       0.000000000000e+00       9.255899669977e-12       1.278619622527e-12      -6.940675520092e-15 
  104       3.797196554318e-10       1.120772857068e-13      -3.477501961071e-12       0.000000000000e+00       9.022918255151e-12       1.253543886952e-12      -6.865421953281e-15 
  105       3.840581159923e-10       1.139687744996e-13      -3.566719813264e-12       0.000000000000e+00       8.796755343941e-12       1.229133792139e-12      -6.795747990258e-15 
  106       3.884207583027e-10       1.158313680130e-13      -3.655699387420e-12       0.000000000000e+00       8.577447212184e-12       1.205395028797e-12      -6.731206408193e-15 
  107       3.928072894753e-10       1.176632655930e-13      -3.744369041711e-12       0.000000000000e+00       8.364982180428e-12       1.182328197491e-12      -6.671284957308e-15 
