# dimensionless total lensed [l(l+1)/2pi] C_l's
# for l=2 to 2500, i.e. number of multipoles equal to 2499
#
# -> if you prefer output in CAMB/HealPix/LensPix units/order, set 'format' to 'camb' in input file
# -> if you don't want to see such a header, set 'headers' to 'no' in input file
# -> for CMB lensing (phi), these are C_l^phi-phi for the lensing potential.
#    Remember the conversion factors:
#    C_l^dd (deflection) = l(l+1) C_l^phi-phi
#    C_l^gg (shear/convergence) = 1/4 (l(l+1))^2 C_l^phi-phi
#
# 1:l     2:TT                     3:EE                     4:TE                     5:BB                     6:phiphi                 7:TPhi                   8:Ephi               
    2       1.444116045840e-10       4.182656427774e-15       3.772996953930e-13       2.257450806024e-19       8.160663499105e-09       4.447641160570e-10      -1.840567181835e-12 
    3       1.363510897645e-10       5.346904157237e-15       4.222983454461e-13       4.515842234942e-19       5.019335980357e-09       3.157030453548e-10      -1.392105299385e-12 
    4       1.286352516012e-10       4.609461635980e-15       3.933317223211e-13       7.528474957976e-19       3.488451252224e-09       2.390759863999e-10      -9.090219684573e-13 
    5       1.227716758257e-10       3.064091362766e-15       3.330724143969e-13       1.129655070483e-18       2.603548506911e-09       1.887378198636e-10      -5.030382601506e-13 
    6       1.186182987483e-10       1.708808896368e-15       2.661069257618e-13       1.582152780564e-18       2.033698312501e-09       1.533967477372e-10      -2.047851808340e-13 
    7       1.158046662405e-10       9.240747772214e-16       2.067377008120e-13       2.110509395564e-18       1.640820554216e-09       1.274838098933e-10      -1.545074644366e-14 
    8       1.140508113814e-10       5.988265831168e-16       1.612169453569e-13       2.714913542562e-18       1.356213942801e-09       1.078872416028e-10       8.026588307339e-14 
    9       1.130496696777e-10       4.819942641908e-16       1.309245392063e-13       3.395570363656e-18       1.142024363246e-09       9.267600223938e-11       1.060730263527e-13 
   10       1.126079748854e-10       4.111800029312e-16       1.143575970736e-13       4.152698008108e-18       9.759846935582e-10       8.059022303224e-11       8.810825700579e-14 
   11       1.126179186851e-10       3.467618609468e-16       1.084897646284e-13       4.986524060350e-18       8.228857575396e-10       7.120733358556e-11       5.065732914819e-14 
   12       1.129922876520e-10       3.043801795358e-16       1.099508775054e-13       5.897282004472e-18       7.189570534368e-10       6.289612342767e-11       1.102679330793e-14 
   13       1.135964146757e-10       2.941247890113e-16       1.158138419766e-13       6.885207821711e-18       6.336326553769e-10       5.613309279390e-11      -1.885451002417e-14 
   14       1.144509603287e-10       3.075998589124e-16       1.238558454042e-13       7.950536810064e-18       5.626506520480e-10       5.038206092661e-11      -3.463287245437e-14 
   15       1.154803574204e-10       3.334461384157e-16       1.326188685746e-13       9.093500704771e-18       5.029047711303e-10       4.535015958304e-11      -3.716631894556e-14 
   16       1.166442138858e-10       3.697281544792e-16       1.414036570302e-13       1.031432516542e-17       4.521069654820e-10       4.108583500518e-11      -3.026492515617e-14 
   17       1.179456498673e-10       4.220396092146e-16       1.501108279729e-13       1.161322768037e-17       4.085324132315e-10       3.744162023056e-11      -1.918898636904e-14 
   18       1.193574279766e-10       4.955441076083e-16       1.588806339176e-13       1.299041574058e-17       3.707140771662e-10       3.423635941666e-11      -8.830823028080e-15 
   19       1.208818244106e-10       5.904730867916e-16       1.679722873036e-13       1.444608657447e-17       3.380517257137e-10       3.141452595803e-11      -1.718263501692e-15 
   20       1.224767749763e-10       7.048043563933e-16       1.776444853669e-13       1.598042441918e-17       3.092863109392e-10       2.889092940028e-11       5.428455454215e-16 
   21       1.241487780824e-10       8.379158230282e-16       1.878433571114e-13       1.759360307832e-17       2.839657246695e-10       2.666526144499e-11      -1.393785123723e-15 
   22       1.258880805100e-10       9.893631369215e-16       1.983363144903e-13       1.928578292533e-17       2.614838287324e-10       2.472107883498e-11      -5.699892424246e-15 
   23       1.276964555897e-10       1.159398986275e-15       2.088022304258e-13       2.105711486200e-17       2.415313361628e-10       2.299419605302e-11      -1.061459523935e-14 
   24       1.295578657358e-10       1.348312103314e-15       2.188423915133e-13       2.290773727032e-17       2.236468116871e-10       2.139154778742e-11      -1.429692026203e-14 
   25       1.314742701566e-10       1.556208934592e-15       2.281348407114e-13       2.483778160593e-17       2.076195978765e-10       1.992884473736e-11      -1.596989851755e-14 
   26       1.334380635958e-10       1.783373033136e-15       2.363947073487e-13       2.684736872686e-17       1.931593161926e-10       1.863610903659e-11      -1.538277487579e-14 
   27       1.354506188772e-10       2.031830792123e-15       2.435522938361e-13       2.893661423650e-17       1.800925724861e-10       1.748169214678e-11      -1.326114621942e-14 
   28       1.375057258276e-10       2.304141806224e-15       2.496285028421e-13       3.110562597152e-17       1.681942524180e-10       1.640969380868e-11      -1.070790130021e-14 
   29       1.396075042672e-10       2.601807896493e-15       2.546764468373e-13       3.335451258079e-17       1.574035091283e-10       1.541697451935e-11      -8.322118136931e-15 
   30       1.417499176674e-10       2.925998075379e-15       2.587905007438e-13       3.568337641547e-17       1.476042732797e-10       1.451001270971e-11      -6.638175849676e-15 
   31       1.439165180662e-10       3.277792484213e-15       2.620702889035e-13       3.809231347529e-17       1.385964559955e-10       1.368738034737e-11      -6.138392333684e-15 
   32       1.461121584488e-10       3.657987271764e-15       2.644768596527e-13       4.058142402569e-17       1.303335694398e-10       1.294233612563e-11      -6.646387071275e-15 
   33       1.483405470094e-10       4.067198933335e-15       2.659221823267e-13       4.315080579891e-17       1.227572996153e-10       1.225952334582e-11      -7.694017055746e-15 
   34       1.505986169816e-10       4.506022851124e-15       2.663039367302e-13       4.580055265569e-17       1.157617096654e-10       1.161940676801e-11      -8.755877495256e-15 
   35       1.528900225512e-10       4.975449702545e-15       2.655017245350e-13       4.853075952839e-17       1.093108687781e-10       1.101938895701e-11      -9.559611432580e-15 
   36       1.552146439633e-10       5.476590062649e-15       2.633772812171e-13       5.134151935230e-17       1.033527993193e-10       1.045921742725e-11      -9.876045826947e-15 
   37       1.575679463799e-10       6.010506102276e-15       2.597990311629e-13       5.423292117171e-17       9.780973545840e-11       9.936391917402e-12      -9.521376638317e-15 
   38       1.599541009985e-10       6.578009476871e-15       2.547275578218e-13       5.720504769552e-17       9.266735275710e-11       9.450704670513e-12      -8.653853265182e-15 
   39       1.623760194071e-10       7.179791556525e-15       2.481584318254e-13       6.025797707029e-17       8.790940705280e-11       9.000724694338e-12      -7.578922069620e-15 
   40       1.648310970043e-10       7.816471472209e-15       2.401003126840e-13       6.339178361033e-17       8.349060167699e-11       8.582274173972e-12      -6.675921780842e-15 
   41       1.673134250410e-10       8.488618919868e-15       2.305684600754e-13       6.660653477051e-17       7.935236999521e-11       8.189931397771e-12      -6.296079582085e-15 
   42       1.698226917727e-10       9.196842912045e-15       2.195608769449e-13       6.990228074086e-17       7.548249493263e-11       7.822706676280e-12      -6.405133993143e-15 
   43       1.723571994093e-10       9.941723928146e-15       2.070756957212e-13       7.327906156175e-17       7.187063163413e-11       7.479808923555e-12      -6.832376047202e-15 
   44       1.749109374354e-10       1.072378605622e-14       1.931180322184e-13       7.673690976499e-17       6.849041348596e-11       7.158942799839e-12      -7.364828582823e-15 
   45       1.774770481966e-10       1.154351100117e-14       1.776873607963e-13       8.027584662558e-17       6.530885827502e-11       6.857128143474e-12      -7.796235003672e-15 
   46       1.800603779463e-10       1.240139183544e-14       1.607345121597e-13       8.389586995063e-17       6.232094472334e-11       6.573735246562e-12      -8.097590337233e-15 
   47       1.826680148450e-10       1.329789045824e-14       1.421922720874e-13       8.759696237298e-17       5.952320403238e-11       6.308151390246e-12      -8.293188962898e-15 
   48       1.853055957426e-10       1.423342028913e-14       1.219866921568e-13       9.137909427119e-17       5.690329327336e-11       6.058854322608e-12      -8.413845218993e-15 
   49       1.879771383270e-10       1.520834438258e-14       1.000366133563e-13       9.524222340587e-17       5.443933546140e-11       5.823345534858e-12      -8.497275213579e-15 
   50       1.906848361103e-10       1.622295824130e-14       7.626847249841e-14       9.918629474569e-17       5.210650766458e-11       5.598903351669e-12      -8.581262283028e-15 
   51       1.934287671985e-10       1.727743713080e-14       5.066656473453e-14       1.032112407337e-16       4.990044455451e-11       5.385237990369e-12      -8.680080513447e-15 
   52       1.962068163296e-10       1.837187120483e-14       2.323560076521e-14       1.073169804645e-16       4.781904676261e-11       5.182441851344e-12      -8.802331634033e-15 
   53       1.990145395499e-10       1.950627701297e-14      -6.013146494989e-15       1.115034191547e-16       4.585547679174e-11       4.990205215706e-12      -8.957643258533e-15 
   54       2.018449946144e-10       2.068059489509e-14      -3.706159911524e-14       1.157704477877e-16       4.399784017433e-11       4.807788100969e-12      -9.156711102997e-15 
   55       2.046913163135e-10       2.189471570719e-14      -6.989195053717e-14       1.201179514426e-16       4.223281104590e-11       4.634291403922e-12      -9.406693814552e-15 
   56       2.075555801798e-10       2.314857474264e-14      -1.045105095650e-13       1.245458375158e-16       4.055829401596e-11       4.469613683299e-12      -9.695961054512e-15 
   57       2.104418436484e-10       2.444207657917e-14      -1.409293544470e-13       1.290540138887e-16       3.897334930104e-11       4.313682765460e-12      -1.000563045940e-14 
   58       2.133535327587e-10       2.577506636091e-14      -1.791595740925e-13       1.336423808424e-16       3.747436232844e-11       4.166161156717e-12      -1.031374724201e-14 
   59       2.162933794993e-10       2.714732833563e-14      -2.192113104323e-13       1.383108310413e-16       3.605487857286e-11       4.026429559539e-12      -1.059514534207e-14 
   60       2.192633591535e-10       2.855858439201e-14      -2.610938007802e-13       1.430592495166e-16       3.470543839302e-11       3.893570388769e-12      -1.082130857690e-14 
   61       2.222648875341e-10       3.000846009567e-14      -3.048128119212e-13       1.478875292208e-16       3.341620254213e-11       3.766621139959e-12      -1.096708418148e-14 
   62       2.252996061673e-10       3.149637719781e-14      -3.503621735180e-13       1.527956218094e-16       3.218589100618e-11       3.645438242849e-12      -1.103289847548e-14 
   63       2.283686629717e-10       3.302163429356e-14      -3.977304108084e-13       1.577834982801e-16       3.101456662966e-11       3.529998740737e-12      -1.102730404416e-14 
   64       2.314724145892e-10       3.458343474951e-14      -4.469031455837e-13       1.628511348760e-16       2.990094639199e-11       3.420139783883e-12      -1.096064438676e-14 
   65       2.346103719758e-10       3.618088420975e-14      -4.978630557915e-13       1.679985135630e-16       2.884232479007e-11       3.315550707923e-12      -1.084513248819e-14 
   66       2.377811459935e-10       3.781298810191e-14      -5.505898351381e-13       1.732256225075e-16       2.783449722088e-11       3.215765112285e-12      -1.069492939093e-14 
   67       2.409823930008e-10       3.947864914314e-14      -6.050601526908e-13       1.785324565539e-16       2.687168336405e-11       3.120152938603e-12      -1.052622276670e-14 
   68       2.442117833346e-10       4.117675212843e-14      -6.612487206141e-13       1.839190252597e-16       2.594807017050e-11       3.028089652353e-12      -1.035416032883e-14 
   69       2.474702562512e-10       4.290644382021e-14      -7.191318389093e-13       1.893853778240e-16       2.506297514683e-11       2.939521302270e-12      -1.018275288783e-14 
   70       2.507593298100e-10       4.466690555203e-14      -7.786844996610e-13       1.949315840916e-16       2.421659645644e-11       2.854500252231e-12      -1.001305713868e-14 
   71       2.540801085975e-10       4.645727070726e-14      -8.398793306138e-13       2.005577281008e-16       2.340845131803e-11       2.773014877313e-12      -9.846137965778e-15 
   72       2.574332554790e-10       4.827662445739e-14      -9.026865831163e-13       2.062639087544e-16       2.263734081033e-11       2.694986171699e-12      -9.683066575875e-15 
   73       2.608189633512e-10       5.012400350031e-14      -9.670741200643e-13       2.120502404910e-16       2.190131467686e-11       2.620264356589e-12      -9.524918631032e-15 
   74       2.642369268942e-10       5.199839579866e-14      -1.033007403844e-12       2.179168539550e-16       2.119763613063e-11       2.548625488110e-12      -9.372772381520e-15 
   75       2.676863143232e-10       5.389874031811e-14      -1.100449484277e-12       2.238638966683e-16       2.052274665892e-11       2.479768065223e-12      -9.227706798755e-15 
   76       2.711662599396e-10       5.582389166455e-14      -1.169362075267e-12       2.298915258094e-16       1.987314885534e-11       2.413391626096e-12      -9.090587877329e-15 
   77       2.746775079201e-10       5.777250712936e-14      -1.239709038061e-12       2.359998835481e-16       1.924831857582e-11       2.349456582122e-12      -8.961386679292e-15 
   78       2.782210183523e-10       5.974313847519e-14      -1.311453514226e-12       2.421891184114e-16       1.864826235287e-11       2.287965823277e-12      -8.839732962092e-15 
   79       2.817974557439e-10       6.173426424411e-14      -1.384556903397e-12       2.484593932758e-16       1.807263037381e-11       2.228885249935e-12      -8.725109866825e-15 
   80       2.854071714545e-10       6.374428877616e-14      -1.458978873541e-12       2.548108858773e-16       1.752070011039e-11       2.172142062014e-12      -8.616847707396e-15 
   81       2.890501861270e-10       6.577154122789e-14      -1.534677371229e-12       2.612437893197e-16       1.699135994841e-11       2.117623048124e-12      -8.514117759683e-15 
   82       2.927261721190e-10       6.781427459086e-14      -1.611608631903e-12       2.677583125842e-16       1.648309281736e-11       2.065172874722e-12      -8.415926050698e-15 
   83       2.964344359343e-10       6.987066471019e-14      -1.689727190144e-12       2.743546810381e-16       1.599395982005e-11       2.014592375256e-12      -8.321107147748e-15 
   84       3.001742614136e-10       7.193886881438e-14      -1.768985521128e-12       2.810331338136e-16       1.552207115839e-11       1.965687984524e-12      -8.228627438583e-15 
   85       3.039460431597e-10       7.401721440334e-14      -1.849332874201e-12       2.877939143307e-16       1.506712447000e-11       1.918433205404e-12      -8.138566344176e-15 
   86       3.077503096727e-10       7.610404002007e-14      -1.930716263860e-12       2.946372791290e-16       1.462909268666e-11       1.872830897583e-12      -8.051287139283e-15 
   87       3.115873679615e-10       7.819763854202e-14      -2.013080825388e-12       3.015635013083e-16       1.420775135277e-11       1.828863673588e-12      -7.967140929732e-15 
   88       3.154572920383e-10       8.029625719970e-14      -2.096369818921e-12       3.085728709850e-16       1.380267044477e-11       1.786493047524e-12      -7.886465643124e-15 
   89       3.193599114136e-10       8.239809759549e-14      -2.180524633517e-12       3.156656957482e-16       1.341320619063e-11       1.745658583799e-12      -7.809585019517e-15 
   90       3.232947995904e-10       8.450131572231e-14      -2.265484791229e-12       3.228423011168e-16       1.303849288936e-11       1.706277045861e-12      -7.736807602120e-15 
   91       3.272612625593e-10       8.660402198235e-14      -2.351187951172e-12       3.301030309953e-16       1.267743473045e-11       1.668241544932e-12      -7.668425727986e-15 
   92       3.312583272930e-10       8.870428120579e-14      -2.437569913591e-12       3.374482481304e-16       1.232869761337e-11       1.631420688738e-12      -7.604714518699e-15 
   93       3.352850436873e-10       9.080014510798e-14      -2.524565690994e-12       3.448783428370e-16       1.199102547968e-11       1.595690046105e-12      -7.545809436897e-15 
   94       3.393414673209e-10       9.288975520445e-14      -2.612112896967e-12       3.523937596845e-16       1.166426150062e-11       1.561033802995e-12      -7.491320082537e-15 
   95       3.434278039184e-10       9.497125548095e-14      -2.700148876932e-12       3.599949756865e-16       1.134846606588e-11       1.527456892780e-12      -7.440656175178e-15 
   96       3.475441019675e-10       9.704276179195e-14      -2.788609704966e-12       3.676824929517e-16       1.104360227979e-11       1.494953640455e-12      -7.393141172302e-15 
   97       3.516902455165e-10       9.910236232458e-14      -2.877430202523e-12       3.754568392535e-16       1.074953223533e-11       1.463507354964e-12      -7.348009593105e-15 
   98       3.558659469715e-10       1.011481180626e-13      -2.966543957144e-12       3.833185686004e-16       1.046601328812e-11       1.433089921529e-12      -7.304404342276e-15 
   99       3.600707398935e-10       1.031780632507e-13      -3.055883341180e-12       3.912682618053e-16       1.019269433048e-11       1.403661393977e-12      -7.261374033787e-15 
  100       3.643039717960e-10       1.051902058578e-13      -3.145379530507e-12       3.993065270564e-16       9.929112065373e-12       1.375169587067e-12      -7.217870314670e-15 
  101       3.685647969424e-10       1.071825280418e-13      -3.234962523242e-12       4.074340004860e-16       9.674687280473e-12       1.347549668816e-12      -7.172745188810e-15 
  102       3.728521691427e-10       1.091529866132e-13      -3.324561158463e-12       4.156513467416e-16       9.428721122149e-12       1.320723752831e-12      -7.124748340720e-15 
  103       3.771648345513e-10       1.110995134993e-13      -3.414103134920e-12       4.239592595549e-16       9.190391369480e-12       1.294600490628e-12      -7.072524459335e-15 
  104       3.815015904024e-10       1.130200670483e-13      -3.503515651082e-12       4.323584410437e-16       8.958938723484e-12       1.269096883010e-12      -7.014944293193e-15 
  105       3.858621165350e-10       1.149127928372e-13      -3.592727383393e-12       4.408495352035e-16       8.734262359871e-12       1.244207947826e-12      -6.952154511733e-15 
  106       3.902462432899e-10       1.167758855529e-13      -3.681666811388e-12       4.494331864521e-16       8.516398254997e-12       1.219945747098e-12      -6.884665335946e-15 
  107       3.946536913731e-10       1.186075411021e-13      -3.770261645466e-12       4.581100604282e-16       8.305334736613e-12       1.196317846847e-12      -6.813030450584e-15 
