# dimensionless total lensed [l(l+1)/2pi] C_l's
# for l=2 to 2500, i.e. number of multipoles equal to 2499
#
# -> if you prefer output in CAMB/HealPix/LensPix units/order, set 'format' to 'camb' in input file
# -> if you don't want to see such a header, set 'headers' to 'no' in input file
# -> for CMB lensing (phi), these are C_l^phi-phi for the lensing potential.
#    Remember the conversion factors:
#    C_l^dd (deflection) = l(l+1) C_l^phi-phi
#    C_l^gg (shear/convergence) = 1/4 (l(l+1))^2 C_l^phi-phi
#
# 1:l     2:TT                     3:EE                     4:TE                     5:BB                     6:phiphi                 7:TPhi                   8:Ephi               
    2       1.423022386845e-10       4.161715037755e-15       3.794390587671e-13       2.266449489634e-19       8.228446827274e-09       4.314344967050e-10      -1.840050295046e-12 
    3       1.347288684108e-10       5.343569823607e-15       4.237536265052e-13       4.533836699652e-19       5.062547431065e-09       3.069371861695e-10      -1.394940179667e-12 
    4       1.273695047814e-10       4.632122788407e-15       3.945417933725e-13       7.558459580446e-19       3.517594615496e-09       2.326855924854e-10      -9.149127465100e-13 
    5       1.217376274841e-10       3.097402208235e-15       3.342370489470e-13       1.134151680510e-18       2.624624814464e-09       1.838268378825e-10      -5.103210229420e-13 
    6       1.177718438832e-10       1.735256566928e-15       2.672282594153e-13       1.588446354458e-18       2.049774898161e-09       1.495259711999e-10      -2.117256605677e-13 
    7       1.150912216552e-10       9.376937828063e-16       2.077225277794e-13       2.118898461956e-18       1.653542175195e-09       1.243373023881e-10      -2.077145895897e-14 
    8       1.134158915544e-10       6.038556684751e-16       1.619922775911e-13       2.725696412503e-18       1.366636848595e-09       1.052357999033e-10       7.719421294659e-14 
    9       1.124955321510e-10       4.847186336739e-16       1.314068194254e-13       3.409045242278e-18       1.150809552417e-09       9.041299300381e-11       1.052119820268e-13 
   10       1.121036437541e-10       4.144046991069e-16       1.145198865656e-13       4.169163146003e-18       9.835336189801e-10       7.866852914563e-11       8.890053177664e-14 
   11       1.121755060476e-10       3.498844579290e-16       1.084146518890e-13       5.006277940285e-18       8.285438699513e-10       6.949510152426e-11       5.221885693766e-14 
   12       1.125628202224e-10       3.061777392259e-16       1.097353214653e-13       5.920623556831e-18       7.238372635584e-10       6.141130839401e-11       1.272576303471e-14 
   13       1.132126088330e-10       2.945265133591e-16       1.154940995514e-13       6.912436660169e-18       6.378930469634e-10       5.486265030767e-11      -1.755118455974e-14 
   14       1.140715287638e-10       3.073225632305e-16       1.234464087882e-13       7.981953477442e-18       5.663969045255e-10       4.914187904531e-11      -3.426749994040e-14 
   15       1.151288569921e-10       3.328102931713e-16       1.321938819675e-13       9.129406917980e-18       5.062229470528e-10       4.434349224163e-11      -3.748940688890e-14 
   16       1.163121082625e-10       3.682805747166e-16       1.409783269854e-13       1.035502404783e-17       4.550673855010e-10       4.021481465974e-11      -3.107612686465e-14 
   17       1.176408663610e-10       4.192324785550e-16       1.495864708920e-13       1.165902397002e-17       4.111899690316e-10       3.661517318511e-11      -2.016423334323e-14 
   18       1.190538122109e-10       4.911563470949e-16       1.583120734623e-13       1.304161596937e-17       3.731111828291e-10       3.347235632342e-11      -9.646122857179e-15 
   19       1.205618830876e-10       5.844302372312e-16       1.673887849477e-13       1.450299917106e-17       3.402262923949e-10       3.074360876045e-11      -2.158094735933e-15 
   20       1.221539161734e-10       6.971013956817e-16       1.769728239136e-13       1.604335982603e-17       3.112660440765e-10       2.832552664759e-11       5.410270366544e-16 
   21       1.238327774281e-10       8.285391458457e-16       1.870621022112e-13       1.766287372284e-17       2.857748718058e-10       2.617345642552e-11      -1.023305836354e-15 
   22       1.255741483584e-10       9.782569153132e-16       1.975195715330e-13       1.936170321324e-17       2.631425149502e-10       2.422983939329e-11      -5.143040229733e-15 
   23       1.273808689612e-10       1.146486034640e-15       2.079950283703e-13       2.114000102549e-17       2.430574210442e-10       2.248436848674e-11      -1.008535699755e-14 
   24       1.292431666689e-10       1.333485631236e-15       2.180289447901e-13       2.299790723788e-17       2.250548251205e-10       2.092040463116e-11      -1.398862349304e-14 
   25       1.311648261264e-10       1.539287524184e-15       2.273362230125e-13       2.493555473689e-17       2.089226442273e-10       1.952205884911e-11      -1.599978711255e-14 
   26       1.331370954213e-10       1.764085762822e-15       2.356862051356e-13       2.695306556764e-17       1.943685526060e-10       1.825914283996e-11      -1.575349069474e-14 
   27       1.351526367823e-10       2.009874678947e-15       2.429568458249e-13       2.905055618018e-17       1.812176840863e-10       1.711209352010e-11      -1.384636602755e-14 
   28       1.371959072428e-10       2.279199851812e-15       2.490911752487e-13       3.122813493659e-17       1.692430363568e-10       1.605780759745e-11      -1.126865615974e-14 
   29       1.392761485302e-10       2.573546791239e-15       2.541547627339e-13       3.348591067122e-17       1.583833211646e-10       1.509468585653e-11      -8.678508227844e-15 
   30       1.413990669342e-10       2.894068711538e-15       2.582911639584e-13       3.582398554966e-17       1.485217988717e-10       1.421961643418e-11      -6.749561171201e-15 
   31       1.435596520061e-10       3.241856953285e-15       2.616490272126e-13       3.824245504344e-17       1.394571434885e-10       1.342117163863e-11      -6.107220094466e-15 
   32       1.457606635050e-10       3.617834631576e-15       2.641855239021e-13       4.074141873048e-17       1.311424383922e-10       1.269075865760e-11      -6.583211622880e-15 
   33       1.479983372546e-10       4.022809787641e-15       2.657885185946e-13       4.332097333366e-17       1.235187764561e-10       1.201396428438e-11      -7.669105491047e-15 
   34       1.502619622094e-10       4.457537676140e-15       2.663281508735e-13       4.598121142510e-17       1.164793385329e-10       1.137329885674e-11      -8.794526965533e-15 
   35       1.525541581319e-10       4.922871647948e-15       2.656659621860e-13       4.872222677566e-17       1.099880203757e-10       1.077090444973e-11      -9.668553767020e-15 
   36       1.548759449902e-10       5.419656095108e-15       2.636462562508e-13       5.154411099155e-17       1.039926718410e-10       1.021308261924e-11      -1.004893070008e-14 
   37       1.572238717713e-10       5.948688619148e-15       2.601261581942e-13       5.444695171112e-17       9.841518095291e-11       9.703303175587e-12      -9.737887566331e-15 
   38       1.596015004793e-10       6.510740846992e-15       2.550922474195e-13       5.743083088995e-17       9.324110055707e-11       9.239599521457e-12      -8.885732842611e-15 
   39       1.620105475779e-10       7.106538026667e-15       2.485830747478e-13       6.049582608013e-17       8.845398581226e-11       8.815815339082e-12      -7.791232048828e-15 
   40       1.644470558912e-10       7.736748816243e-15       2.406596819352e-13       6.364201096903e-17       8.400813273668e-11       8.421898887247e-12      -6.826424925795e-15 
   41       1.669045528551e-10       8.402004053324e-15       2.313815871358e-13       6.686945259522e-17       7.984449295154e-11       8.046938377805e-12      -6.339157013730e-15 
   42       1.693861781236e-10       9.102969132341e-15       2.207220755651e-13       7.017820175917e-17       7.595078356877e-11       7.690212629569e-12      -6.311132358347e-15 
   43       1.718955122258e-10       9.840289082858e-15       2.086276181952e-13       7.356829959367e-17       7.231664971746e-11       7.353208359443e-12      -6.596514443122e-15 
   44       1.744328443659e-10       1.061456615639e-14       1.950404842741e-13       7.703978000733e-17       6.891562762423e-11       7.036498049920e-12      -7.012271712062e-15 
   45       1.769965644000e-10       1.142635137975e-14       1.799040349623e-13       8.059266601353e-17       6.571459172814e-11       6.739863510036e-12      -7.379098124075e-15 
   46       1.795886174724e-10       1.227612114747e-14       1.631814082536e-13       8.422695773109e-17       6.270848559483e-11       6.462908999001e-12      -7.664175356935e-15 
   47       1.822101152856e-10       1.316429006285e-14       1.448417583214e-13       8.794264056322e-17       5.989379302667e-11       6.204488194471e-12      -7.877184139996e-15 
   48       1.848595269424e-10       1.409121427950e-14       1.248549976162e-13       9.173968808860e-17       5.725806303718e-11       5.962442007016e-12      -8.030979603954e-15 
   49       1.875324461924e-10       1.505718903784e-14       1.031917350878e-13       9.561806172088e-17       5.477924552037e-11       5.733526356154e-12      -8.141783529912e-15 
   50       1.902238994774e-10       1.606244631353e-14       7.982284683587e-14       9.957771028138e-17       5.243232866998e-11       5.514340471884e-12      -8.228346244068e-15 
   51       1.929365486286e-10       1.710715272563e-14       5.471819399124e-14       1.036185693706e-16       5.021291645836e-11       5.304576415345e-12      -8.308718090233e-15 
   52       1.956743123706e-10       1.819140680227e-14       2.784745003175e-14       1.077405612374e-16       4.811890266145e-11       5.104526760257e-12      -8.402933924324e-15 
   53       1.984399096230e-10       1.931523641905e-14      -8.196392608902e-16       1.119435945147e-16       4.614341534935e-11       4.914136614882e-12      -8.534107226554e-15 
   54       2.012347463134e-10       2.047859634083e-14      -3.131333487604e-14       1.162275638747e-16       4.427449616742e-11       4.732978481609e-12      -8.728573863235e-15 
   55       2.040593954371e-10       2.168140353637e-14      -6.365923880278e-14       1.205923577606e-16       4.249874630271e-11       4.560467809351e-12      -9.007097314171e-15 
   56       2.069154361864e-10       2.292365902760e-14      -9.786275824715e-14       1.250378846206e-16       4.081405976578e-11       4.396629951270e-12      -9.355596530305e-15 
   57       2.098038734456e-10       2.420535200449e-14      -1.339209204989e-13       1.295640525871e-16       3.921949156510e-11       4.241479700410e-12      -9.747398057581e-15 
   58       2.127244964630e-10       2.552642373900e-14      -1.718266761520e-13       1.341707619428e-16       3.771140560786e-11       4.094781870173e-12      -1.015133741607e-14 
   59       2.156757887781e-10       2.688676659848e-14      -2.115687933152e-13       1.388579050902e-16       3.628330852730e-11       3.956035531549e-12      -1.053155460718e-14 
   60       2.186548381490e-10       2.828622305906e-14      -2.531317518232e-13       1.436253665217e-16       3.492568350991e-11       3.824458250348e-12      -1.084728962088e-14 
   61       2.216586363016e-10       2.972452056580e-14      -2.964983017928e-13       1.484730379422e-16       3.362863157335e-11       3.699203729651e-12      -1.106227798526e-14 
   62       2.246885228677e-10       3.120106125908e-14      -3.416580497153e-13       1.534008676699e-16       3.239086412594e-11       3.580107483753e-12      -1.117586444478e-14 
   63       2.277465836407e-10       3.271508308450e-14      -3.886006206510e-13       1.584088223211e-16       3.121244319324e-11       3.467081329140e-12      -1.119854198811e-14 
   64       2.308343037093e-10       3.426571681903e-14      -4.373131431158e-13       1.634968730788e-16       3.009207651426e-11       3.359886557249e-12      -1.114306619595e-14 
   65       2.339525214833e-10       3.585198304887e-14      -4.877802278299e-13       1.686649961429e-16       2.902704044696e-11       3.258125577462e-12      -1.102455535035e-14 
   66       2.371013827184e-10       3.747278914732e-14      -5.399839464666e-13       1.739131731817e-16       2.801310287385e-11       3.161233560115e-12      -1.086059054397e-14 
   67       2.402802945421e-10       3.912692625266e-14      -5.939038103998e-13       1.792413917825e-16       2.704444610753e-11       3.068470079495e-12      -1.067131578938e-14 
   68       2.434885156225e-10       4.081318524054e-14      -6.495178484161e-13       1.846496541461e-16       2.611521981150e-11       2.979109459558e-12      -1.047559734867e-14 
   69       2.467271683067e-10       4.253073868429e-14      -7.068061409298e-13       1.901380042105e-16       2.522473748446e-11       2.893075278656e-12      -1.027837426127e-14 
   70       2.499975534774e-10       4.427883121636e-14      -7.657479670060e-13       1.957065068582e-16       2.437319926265e-11       2.810420010018e-12      -1.008091276418e-14 
   71       2.533005213102e-10       4.605666740246e-14      -8.263207754917e-13       2.013552408087e-16       2.356012029731e-11       2.731134478247e-12      -9.884519622571e-15 
   72       2.566364415689e-10       4.786341176274e-14      -8.885001918716e-13       2.070842992800e-16       2.278429534869e-11       2.655144584236e-12      -9.690541451870e-15 
   73       2.600051739001e-10       4.969818879307e-14      -9.522600251221e-13       2.128937906502e-16       2.204376337991e-11       2.582308030075e-12      -9.500364039866e-15 
   74       2.634060381287e-10       5.156008298617e-14      -1.017572274567e-12       2.187838391194e-16       2.133577215090e-11       2.512411043970e-12      -9.315411668802e-15 
   75       2.668377845525e-10       5.344813885284e-14      -1.084407136731e-12       2.247545853713e-16       2.065674281234e-11       2.445165105151e-12      -9.137146437462e-15 
   76       2.702991885750e-10       5.536130656176e-14      -1.152732459842e-12       2.308061803941e-16       2.000315783512e-11       2.380283111409e-12      -8.966983121836e-15 
   77       2.737910254538e-10       5.729826736767e-14      -1.222511977327e-12       2.369387641801e-16       1.937448999725e-11       2.317731156646e-12      -8.806017331542e-15 
   78       2.773144033623e-10       5.925757623978e-14      -1.293706763144e-12       2.431524843261e-16       1.877074566769e-11       2.257516929315e-12      -8.655246319487e-15 
   79       2.808701543689e-10       6.123771234288e-14      -1.366275751156e-12       2.494475030425e-16       1.819157264834e-11       2.199612723481e-12      -8.515646674699e-15 
   80       2.844588175347e-10       6.323707794334e-14      -1.440175730666e-12       2.558239976743e-16       1.763624370175e-11       2.143953792776e-12      -8.388171912476e-15 
   81       2.880806220110e-10       6.525399731523e-14      -1.515361341939e-12       2.622821612232e-16       1.710364007878e-11       2.090436704338e-12      -8.273750064527e-15 
   82       2.917354701369e-10       6.728671564641e-14      -1.591785071734e-12       2.688222028683e-16       1.659223504629e-11       2.038917692766e-12      -8.173281269118e-15 
   83       2.954229205366e-10       6.933339794451e-14      -1.669397248832e-12       2.754443484881e-16       1.610007741476e-11       1.989211014066e-12      -8.087635361211e-15 
   84       2.991424689121e-10       7.139219504666e-14      -1.748146753574e-12       2.821488374632e-16       1.562526547030e-11       1.941135369293e-12      -8.017233772860e-15 
   85       3.028944809282e-10       7.346145661779e-14      -1.827983291426e-12       2.889359113350e-16       1.516749512548e-11       1.894665623724e-12      -7.960720875093e-15 
   86       3.066793837093e-10       7.553955162142e-14      -1.908855489874e-12       2.958058242141e-16       1.472673941121e-11       1.849803338500e-12      -7.916066930191e-15 
   87       3.104973701712e-10       7.762480438896e-14      -1.990710225350e-12       3.027588467837e-16       1.430277278267e-11       1.806530111409e-12      -7.880954939773e-15 
   88       3.143483871215e-10       7.971549465360e-14      -2.073492630751e-12       3.097952667586e-16       1.389516288907e-11       1.764806738731e-12      -7.852771248551e-15 
   89       3.182321233608e-10       8.180985758413e-14      -2.157146102978e-12       3.169153893437e-16       1.350326234339e-11       1.724572377076e-12      -7.828596148101e-15 
   90       3.221479977833e-10       8.390608381885e-14      -2.241612310455e-12       3.241195376936e-16       1.312620049220e-11       1.685743705230e-12      -7.805194480613e-15 
   91       3.260951474778e-10       8.600231949938e-14      -2.326831200664e-12       3.314080533709e-16       1.276287518535e-11       1.648214085998e-12      -7.779006242662e-15 
   92       3.300724158283e-10       8.809666630455e-14      -2.412741007671e-12       3.387812968055e-16       1.241194454574e-11       1.611852728039e-12      -7.746137188963e-15 
   93       3.340786985352e-10       9.018721068718e-14      -2.499279034229e-12       3.462396550396e-16       1.207214518661e-11       1.576536804593e-12      -7.703252545960e-15 
   94       3.381140670548e-10       9.227211654081e-14      -2.586384116289e-12       3.537835652993e-16       1.174331948667e-11       1.542255155951e-12      -7.650432318804e-15 
   95       3.421787929107e-10       9.434954659752e-14      -2.673994544798e-12       3.614134958330e-16       1.142552831922e-11       1.509018706745e-12      -7.588730048240e-15 
   96       3.462729979367e-10       9.641763489570e-14      -2.762047342063e-12       3.691299394929e-16       1.111873467218e-11       1.476828518184e-12      -7.519310924980e-15 
   97       3.503966472904e-10       9.847448721482e-14      -2.850478279922e-12       3.769334142936e-16       1.082279989901e-11       1.445675402295e-12      -7.443454790301e-15 
   98       3.545495424670e-10       1.005181815101e-13      -2.939221897895e-12       3.848244639711e-16       1.053747996947e-11       1.415539536154e-12      -7.362559136647e-15 
   99       3.587313143136e-10       1.025467683472e-13      -3.028211521351e-12       3.928036585416e-16       1.026242172054e-11       1.386390076122e-12      -7.278142108230e-15 
  100       3.629414160426e-10       1.045582713372e-13      -3.117379279669e-12       4.008715948609e-16       9.997159107240e-12       1.358184772085e-12      -7.191845501632e-15 
  101       3.671791162463e-10       1.065506875708e-13      -3.206656124395e-12       4.090288971828e-16       9.741109453472e-12       1.330869581686e-12      -7.105437766408e-15 
  102       3.714434919100e-10       1.085219880538e-13      -3.295971847406e-12       4.172762177182e-16       9.493569702888e-12       1.304378284561e-12      -7.020817005686e-15 
  103       3.757334214267e-10       1.104701181409e-13      -3.385255099073e-12       4.256142371943e-16       9.253712669730e-12       1.278632096576e-12      -6.940013976769e-15 
  104       3.800478168439e-10       1.123930489079e-13      -3.474433985083e-12       4.340436461261e-16       9.020774471117e-12       1.253558201181e-12      -6.864755357181e-15 
  105       3.843863713830e-10       1.142889382316e-13      -3.563437909626e-12       4.425650845467e-16       8.794653734751e-12       1.229149025333e-12      -6.795079890129e-15 
  106       3.887489003449e-10       1.161559923809e-13      -3.652196016217e-12       4.511791951400e-16       8.575386722767e-12       1.205410288987e-12      -6.730540024190e-15 
  107       3.931351065896e-10       1.179924180060e-13      -3.740636655484e-12       4.598866421429e-16       8.362961750132e-12       1.182342627282e-12      -6.670623144966e-15 
