# dimensionless total [l(l+1)/2pi] C_l's
# for l=2 to 3000, i.e. number of multipoles equal to 2999
#
# -> if you prefer output in CAMB/HealPix/LensPix units/order, set 'format' to 'camb' in input file
# -> if you don't want to see such a header, set 'headers' to 'no' in input file
# -> for CMB lensing (phi), these are C_l^phi-phi for the lensing potential.
#    Remember the conversion factors:
#    C_l^dd (deflection) = l(l+1) C_l^phi-phi
#    C_l^gg (shear/convergence) = 1/4 (l(l+1))^2 C_l^phi-phi
#
# 1:l     2:TT                     3:EE                     4:TE                     5:BB                     6:phiphi                 7:TPhi                   8:Ephi               
    2       1.357528172430e-10       4.076929745616e-15       3.510401218446e-13       0.000000000000e+00       8.306576061772e-09       4.387943530055e-10      -1.823588577729e-12 
    3       1.288337978656e-10       5.245130784967e-15       3.934262575210e-13       0.000000000000e+00       5.099031187963e-09       3.119989785897e-10      -1.384641839680e-12 
    4       1.221751694818e-10       4.559815084493e-15       3.678177943391e-13       0.000000000000e+00       3.548021167725e-09       2.365864167087e-10      -9.103004145244e-13 
    5       1.171885663362e-10       3.058850067586e-15       3.134464301418e-13       0.000000000000e+00       2.649968709598e-09       1.869839195190e-10      -5.098352841857e-13 
    6       1.137647153771e-10       1.717896467589e-15       2.526749629867e-13       0.000000000000e+00       2.070888423839e-09       1.521491294650e-10      -2.136254520779e-13 
    7       1.115543269855e-10       9.278434154123e-16       1.985955965241e-13       0.000000000000e+00       1.671257705462e-09       1.265900795536e-10      -2.352516895299e-14 
    8       1.103034687163e-10       5.948602965390e-16       1.569611967172e-13       0.000000000000e+00       1.381318109389e-09       1.072540637859e-10       7.467080547489e-14 
    9       1.097231113488e-10       4.757961730339e-16       1.290788460799e-13       0.000000000000e+00       1.162854400950e-09       9.225965575161e-11       1.035159745113e-13 
   10       1.096858613278e-10       4.063085421090e-16       1.136246994432e-13       0.000000000000e+00       9.935442377149e-10       8.034527300275e-11       8.818662388022e-14 
   11       1.100243692876e-10       3.424559655657e-16       1.079358462671e-13       0.000000000000e+00       8.369779260932e-10       7.092141086479e-11       5.225436967068e-14 
   12       1.106319810412e-10       2.985671722140e-16       1.090680223758e-13       0.000000000000e+00       7.313312579769e-10       6.279554490964e-11       1.329547470163e-14 
   13       1.115105039852e-10       2.862362169233e-16       1.144225315629e-13       0.000000000000e+00       6.445953229722e-10       5.599496376227e-11      -1.712557072372e-14 
   14       1.126124662480e-10       2.983751134275e-16       1.219459544726e-13       0.000000000000e+00       5.724341257129e-10       5.039261729848e-11      -3.382852369640e-14 
   15       1.138213760997e-10       3.233311467498e-16       1.302583449011e-13       0.000000000000e+00       5.117025959807e-10       4.552999528401e-11      -3.734834267960e-14 
   16       1.151679511285e-10       3.582241685608e-16       1.387408019614e-13       0.000000000000e+00       4.600648816945e-10       4.123744145881e-11      -3.136371873406e-14 
   17       1.166473187635e-10       4.082400349616e-16       1.472034115236e-13       0.000000000000e+00       4.157675872913e-10       3.752179771420e-11      -2.073686441729e-14 
   18       1.182112072150e-10       4.789000989068e-16       1.558405719589e-13       0.000000000000e+00       3.773202415593e-10       3.430323736884e-11      -1.030416377485e-14 
   19       1.198648203245e-10       5.707872424527e-16       1.648370831225e-13       0.000000000000e+00       3.441138389916e-10       3.152179727284e-11      -2.730808161864e-15 
   20       1.215778512189e-10       6.821699151598e-16       1.743211172248e-13       0.000000000000e+00       3.148682993813e-10       2.905730811755e-11       1.571235019017e-16 
   21       1.233561503946e-10       8.123222934728e-16       1.842915726763e-13       0.000000000000e+00       2.891241277001e-10       2.686474048363e-11      -1.194318606027e-15 
   22       1.251866927211e-10       9.605788464862e-16       1.946254496442e-13       0.000000000000e+00       2.662652017860e-10       2.489125603252e-11      -5.161091300557e-15 
   23       1.270713138445e-10       1.127269850071e-15       2.049894531767e-13       0.000000000000e+00       2.459771404439e-10       2.312992665457e-11      -1.001843018010e-14 
   24       1.289977058990e-10       1.312840692265e-15       2.149392792928e-13       0.000000000000e+00       2.277907713334e-10       2.156453365612e-11      -1.388447956087e-14 
   25       1.309776858178e-10       1.517352500246e-15       2.241787762087e-13       0.000000000000e+00       2.114918554884e-10       2.016887782216e-11      -1.589142319560e-14 
   26       1.330128132600e-10       1.740957032302e-15       2.324617965000e-13       0.000000000000e+00       1.967851541243e-10       1.889867397934e-11      -1.566202206586e-14 
   27       1.350908981439e-10       1.985534735032e-15       2.396831635479e-13       0.000000000000e+00       1.834949781372e-10       1.772963121251e-11      -1.380217574407e-14 
   28       1.371876597337e-10       2.253504934622e-15       2.458104462913e-13       0.000000000000e+00       1.713931341085e-10       1.663809829870e-11      -1.131160367889e-14 
   29       1.393123560064e-10       2.546364859663e-15       2.509066127752e-13       0.000000000000e+00       1.604176692362e-10       1.562843169892e-11      -8.822150012904e-15 
   30       1.414743236944e-10       2.865335030535e-15       2.551014705500e-13       0.000000000000e+00       1.504501081314e-10       1.470720795419e-11      -6.962426023861e-15 
   31       1.436724899371e-10       3.211576006801e-15       2.585258209934e-13       0.000000000000e+00       1.412865161988e-10       1.387308643529e-11      -6.315153050939e-15 
   32       1.459095848680e-10       3.586011564770e-15       2.611167332850e-13       0.000000000000e+00       1.328797401312e-10       1.312005451638e-11      -6.721929311503e-15 
   33       1.481805598190e-10       3.989425883550e-15       2.627380140872e-13       0.000000000000e+00       1.251708031826e-10       1.243370794108e-11      -7.706027397672e-15 
   34       1.504732618401e-10       4.422542105733e-15       2.632429864207e-13       0.000000000000e+00       1.180522888719e-10       1.179492358002e-11      -8.734306338555e-15 
   35       1.527887111787e-10       4.886168305817e-15       2.625252107364e-13       0.000000000000e+00       1.114877480772e-10       1.119891272461e-11      -9.544440721441e-15 
   36       1.551261597960e-10       5.381092597438e-15       2.604837863290e-13       0.000000000000e+00       1.054243237482e-10       1.064189297643e-11      -9.924086351352e-15 
   37       1.574809664708e-10       5.908074941419e-15       2.570259018722e-13       0.000000000000e+00       9.978291192080e-11       1.011806978570e-11      -9.698286281795e-15 
   38       1.598586643141e-10       6.467967449055e-15       2.521236521501e-13       0.000000000000e+00       9.454895388042e-11       9.627919612434e-12      -8.990246853034e-15 
   39       1.622644317996e-10       7.061628992131e-15       2.457764510994e-13       0.000000000000e+00       8.970592841188e-11       9.172169449535e-12      -8.049780389247e-15 
   40       1.646986461953e-10       7.689890678304e-15       2.379967896945e-13       0.000000000000e+00       8.520774233694e-11       8.749313455410e-12      -7.188658487221e-15 
   41       1.671584699971e-10       8.353529145387e-15       2.288007150129e-13       0.000000000000e+00       8.099479917387e-11       8.356312947699e-12      -6.702125660563e-15 
   42       1.696445115819e-10       9.053180385812e-15       2.181737227257e-13       0.000000000000e+00       7.705469862124e-11       7.991470335484e-12      -6.593055607648e-15 
   43       1.721554364392e-10       9.789394790271e-15       2.060950337429e-13       0.000000000000e+00       7.337695409899e-11       7.652140739823e-12      -6.764759324952e-15 
   44       1.746856554799e-10       1.056265612803e-14       1.925469612159e-13       0.000000000000e+00       6.993477504586e-11       7.333761921009e-12      -7.094112945583e-15 
   45       1.772285275451e-10       1.137339863523e-14       1.775094929320e-13       0.000000000000e+00       6.669463580345e-11       7.031265111758e-12      -7.456486119172e-15 
   46       1.797880207753e-10       1.222207273975e-14       1.609419980533e-13       0.000000000000e+00       6.365145201278e-11       6.744153366135e-12      -7.813329849416e-15 
   47       1.823698791104e-10       1.310909294521e-14       1.427961301230e-13       0.000000000000e+00       6.080171288594e-11       6.472693930035e-12      -8.147947507885e-15 
   48       1.849781597155e-10       1.403481659646e-14       1.230205547180e-13       0.000000000000e+00       5.813287288272e-11       6.216439288601e-12      -8.441051262277e-15 
   49       1.876150526382e-10       1.499954151737e-14       1.015606810499e-13       0.000000000000e+00       5.562267969029e-11       5.974171293981e-12      -8.670631813499e-15 
   50       1.902813116519e-10       1.600349505413e-14       7.836507823949e-14       0.000000000000e+00       5.324588030889e-11       5.744365078084e-12      -8.820041236431e-15 
   51       1.929781030466e-10       1.704680318005e-14       5.340740003387e-14       0.000000000000e+00       5.099804434322e-11       5.526858866492e-12      -8.905130221211e-15 
   52       1.957053469390e-10       1.812950892118e-14       2.666994736233e-14       0.000000000000e+00       4.887704564592e-11       5.321540838066e-12      -8.954251761896e-15 
   53       1.984610019643e-10       1.925157751657e-14      -1.862451117597e-15       0.000000000000e+00       4.687593228454e-11       5.127838287963e-12      -9.000942012209e-15 
   54       2.012409136955e-10       2.041289365145e-14      -3.220239284599e-14       0.000000000000e+00       4.498260172624e-11       4.944686215862e-12      -9.084176521618e-15 
   55       2.040406341557e-10       2.161332594746e-14      -6.435992811444e-14       0.000000000000e+00       4.318349355127e-11       4.770847413331e-12      -9.237796145935e-15 
   56       2.068617569259e-10       2.285294553236e-14      -9.834275389132e-14       0.000000000000e+00       4.147648595975e-11       4.606037803738e-12      -9.455121666805e-15 
   57       2.097068903086e-10       2.413185692150e-14      -1.341559872693e-13       0.000000000000e+00       3.986063409453e-11       4.450025640749e-12      -9.715997501663e-15 
   58       2.125777509635e-10       2.545013537495e-14      -1.718020543661e-13       0.000000000000e+00       3.833226858170e-11       4.302287171031e-12      -9.996689742555e-15 
   59       2.154750891225e-10       2.680782675110e-14      -2.112806469921e-13       0.000000000000e+00       3.688482724245e-11       4.161988917258e-12      -1.026972043149e-14 
   60       2.183986138053e-10       2.820494736039e-14      -2.525886793172e-13       0.000000000000e+00       3.550868680478e-11       4.027969961111e-12      -1.050370183578e-14 
   61       2.213477426901e-10       2.964137359679e-14      -2.957198676054e-13       0.000000000000e+00       3.419383628081e-11       3.899064144600e-12      -1.067029141538e-14 
   62       2.243242175991e-10       3.111648221472e-14      -3.406634572167e-13       0.000000000000e+00       3.293897902988e-11       3.775191266945e-12      -1.076725589662e-14 
   63       2.273299460521e-10       3.262942868124e-14      -3.874051316716e-13       0.000000000000e+00       3.174418441869e-11       3.656480494095e-12      -1.080031365638e-14 
   64       2.303661807595e-10       3.417924670173e-14      -4.359273101729e-13       0.000000000000e+00       3.060814986202e-11       3.542945259214e-12      -1.077652987353e-14 
   65       2.334334710034e-10       3.576484457624e-14      -4.862090923126e-13       0.000000000000e+00       2.952812269846e-11       3.434476331041e-12      -1.070437673845e-14 
   66       2.365316140188e-10       3.738500155588e-14      -5.382262027798e-13       0.000000000000e+00       2.849982206603e-11       3.330834882236e-12      -1.059379366252e-14 
   67       2.396596063746e-10       3.903836419920e-14      -5.919509360677e-13       0.000000000000e+00       2.751736077793e-11       3.231645557735e-12      -1.045624748770e-14 
   68       2.428163271112e-10       4.072359312455e-14      -6.473548537674e-13       0.000000000000e+00       2.657481807873e-11       3.136508264533e-12      -1.030285017064e-14 
   69       2.460028565680e-10       4.243984594168e-14      -7.044176347013e-13       0.000000000000e+00       2.567150260426e-11       3.045375338767e-12      -1.013813435150e-14 
   70       2.492205422291e-10       4.418638607883e-14      -7.631199269691e-13       0.000000000000e+00       2.480762038983e-11       2.958238701446e-12      -9.965118919611e-15 
   71       2.524702791718e-10       4.596244124411e-14      -8.234407688643e-13       0.000000000000e+00       2.398268308691e-11       2.875014073521e-12      -9.787150285212e-15 
   72       2.557524801626e-10       4.776720362830e-14      -8.853576039808e-13       0.000000000000e+00       2.319547206082e-11       2.795537080593e-12      -9.607912908051e-15 
   73       2.590670457537e-10       4.959983010767e-14      -9.488462963186e-13       0.000000000000e+00       2.244400248844e-11       2.719559357620e-12      -9.431439825921e-15 
   74       2.624133343786e-10       5.145944244684e-14      -1.013881145390e-12       0.000000000000e+00       2.172548745589e-11       2.646744653622e-12      -9.262123183231e-15 
   75       2.657901324485e-10       5.334512750156e-14      -1.080434901324e-12       0.000000000000e+00       2.103630205621e-11       2.576664936389e-12      -9.104724759567e-15 
   76       2.691962336239e-10       5.525587256375e-14      -1.148477755286e-12       0.000000000000e+00       2.037288349699e-11       2.508907606367e-12      -8.963286201519e-15 
   77       2.726323646837e-10       5.719035733657e-14      -1.217974064775e-12       0.000000000000e+00       1.973470028239e-11       2.443428320309e-12      -8.837607019595e-15 
   78       2.760995581497e-10       5.914712421723e-14      -1.288885055841e-12       0.000000000000e+00       1.912176176410e-11       2.380255728677e-12      -8.726140481416e-15 
   79       2.795985571368e-10       6.112463868063e-14      -1.361169788982e-12       0.000000000000e+00       1.853371372676e-11       2.319384483485e-12      -8.627025092309e-15 
   80       2.831297979398e-10       6.312128815218e-14      -1.434785153243e-12       0.000000000000e+00       1.796982167928e-11       2.260773621387e-12      -8.538072561395e-15 
   81       2.866933926219e-10       6.513538088071e-14      -1.509685860310e-12       0.000000000000e+00       1.742895414624e-11       2.204344946770e-12      -8.456755767674e-15 
   82       2.902891116023e-10       6.716514481130e-14      -1.585824438601e-12       0.000000000000e+00       1.690956595913e-11       2.149981414842e-12      -8.380196726118e-15 
   83       2.939163662435e-10       6.920872645815e-14      -1.663151227360e-12       0.000000000000e+00       1.640968154778e-11       2.097525514727e-12      -8.305154553749e-15 
   84       2.975745407541e-10       7.126425937264e-14      -1.741615174375e-12       0.000000000000e+00       1.592737533878e-11       2.046820471610e-12      -8.228747169382e-15 
   85       3.012640892565e-10       7.333008505788e-14      -1.821166393993e-12       0.000000000000e+00       1.546234105541e-11       1.997845243047e-12      -8.150780219427e-15 
   86       3.049855895105e-10       7.540456678087e-14      -1.901754024316e-12       0.000000000000e+00       1.501455314950e-11       1.950599041712e-12      -8.071783970174e-15 
   87       3.087393983981e-10       7.748602327535e-14      -1.983325468764e-12       0.000000000000e+00       1.458378459438e-11       1.905059622099e-12      -7.992314195008e-15 
   88       3.125256403819e-10       7.957272878440e-14      -2.065826403683e-12       0.000000000000e+00       1.416959853101e-11       1.861182383259e-12      -7.912952472151e-15 
   89       3.163441959638e-10       8.166291310292e-14      -2.149200785941e-12       0.000000000000e+00       1.377133991396e-11       1.818899471534e-12      -7.834306482407e-15 
   90       3.201946901435e-10       8.375476162018e-14      -2.233390860528e-12       0.000000000000e+00       1.338812715759e-11       1.778118883303e-12      -7.757010306912e-15 
   91       3.240764808768e-10       8.584641536236e-14      -2.318337168160e-12       0.000000000000e+00       1.301884378206e-11       1.738723567713e-12      -7.681724724871e-15 
   92       3.279886475349e-10       8.793597103507e-14      -2.403978552873e-12       0.000000000000e+00       1.266213005944e-11       1.700570529421e-12      -7.609137511312e-15 
   93       3.319302894389e-10       9.002150958501e-14      -2.490252816903e-12       0.000000000000e+00       1.231670574713e-11       1.663525080259e-12      -7.539804119250e-15 
   94       3.359014978960e-10       9.210118670646e-14      -2.577098781456e-12       0.000000000000e+00       1.198241195736e-11       1.627571435876e-12      -7.473641669977e-15 
   95       3.399025096994e-10       9.417315608896e-14      -2.664454551370e-12       0.000000000000e+00       1.165931126847e-11       1.592717171287e-12      -7.410359055263e-15 
   96       3.439334028897e-10       9.623554253921e-14      -2.752256911723e-12       0.000000000000e+00       1.134736684153e-11       1.558959144830e-12      -7.349607904023e-15 
   97       3.479940894707e-10       9.828644241511e-14      -2.840441344318e-12       0.000000000000e+00       1.104643861117e-11       1.526283083385e-12      -7.290980689044e-15 
   98       3.520843081236e-10       1.003239240597e-13      -2.928942044165e-12       0.000000000000e+00       1.075627947644e-11       1.494663167597e-12      -7.234008833711e-15 
   99       3.562036169222e-10       1.023460282354e-13      -3.017691935970e-12       0.000000000000e+00       1.047653149171e-11       1.464061617098e-12      -7.178160818741e-15 
  100       3.603513860480e-10       1.043507685575e-13      -3.106622690619e-12       0.000000000000e+00       1.020672205746e-11       1.434428275728e-12      -7.122840288907e-15 
  101       3.645267905051e-10       1.063361319288e-13      -3.195664741661e-12       0.000000000000e+00       9.946260111216e-12       1.405700196759e-12      -7.067384159767e-15 
  102       3.687288028349e-10       1.083000789731e-13      -3.284747301797e-12       0.000000000000e+00       9.694432318340e-12       1.377801228115e-12      -7.011060724392e-15 
  103       3.729561858312e-10       1.102405444697e-13      -3.373798379361e-12       0.000000000000e+00       9.450399262941e-12       1.350641597594e-12      -6.953067760096e-15 
  104       3.772077550564e-10       1.121554890644e-13      -3.462745574446e-12       0.000000000000e+00       9.213385823778e-12       1.324139228769e-12      -6.892721690030e-15 
  105       3.814832224681e-10       1.140430614249e-13      -3.551518554237e-12       0.000000000000e+00       8.983289794949e-12       1.298287861428e-12      -6.830058247566e-15 
  106       3.857824537029e-10       1.159014589019e-13      -3.640046944349e-12       0.000000000000e+00       8.760148762406e-12       1.273097402783e-12      -6.765309801053e-15 
  107       3.901052041842e-10       1.177288791923e-13      -3.728259603800e-12       0.000000000000e+00       8.543951605603e-12       1.248572844674e-12      -6.698721748472e-15 
