# dimensionless total lensed [l(l+1)/2pi] C_l's
# for l=2 to 2500, i.e. number of multipoles equal to 2499
#
# -> if you prefer output in CAMB/HealPix/LensPix units/order, set 'format' to 'camb' in input file
# -> if you don't want to see such a header, set 'headers' to 'no' in input file
# -> for CMB lensing (phi), these are C_l^phi-phi for the lensing potential.
#    Remember the conversion factors:
#    C_l^dd (deflection) = l(l+1) C_l^phi-phi
#    C_l^gg (shear/convergence) = 1/4 (l(l+1))^2 C_l^phi-phi
#
# 1:l     2:TT                     3:EE                     4:TE                     5:BB                     6:phiphi                 7:TPhi                   8:Ephi               
    2       1.390799189005e-10       4.174699481341e-15       3.503931684556e-13       2.264142296589e-19       8.174136768188e-09       4.589214905331e-10      -1.840211442198e-12 
    3       1.313569239112e-10       5.336657060612e-15       3.944409178421e-13       4.529225843648e-19       5.027610722994e-09       3.249027746413e-10      -1.391816958076e-12 
    4       1.241329970798e-10       4.600633182046e-15       3.690096103830e-13       7.550782364165e-19       3.494297461873e-09       2.457983573839e-10      -9.088446863658e-13 
    5       1.187558617151e-10       3.058260361695e-15       3.141704817156e-13       1.133001441644e-18       2.607981890802e-09       1.939931544552e-10      -5.029620163046e-13 
    6       1.150471031402e-10       1.705603791948e-15       2.528680446443e-13       1.586838135935e-18       2.037209562544e-09       1.576817020754e-10      -2.047841433812e-13 
    7       1.126318926449e-10       9.223836676457e-16       1.984139213669e-13       2.116757211225e-18       1.643689210533e-09       1.310809792461e-10      -1.549769997249e-14 
    8       1.112352808083e-10       5.977528911305e-16       1.565976463282e-13       2.722947435996e-18       1.358610070133e-09       1.109724695844e-10       8.019545237106e-14 
    9       1.105565260911e-10       4.811356194977e-16       1.287121723434e-13       3.405614112098e-18       1.144059718086e-09       9.536621362759e-11       1.059990187176e-13 
   10       1.104063393158e-10       4.104572879137e-16       1.134069333585e-13       4.164975566164e-18       9.777376242818e-10       8.296706890711e-11       8.804429295187e-14 
   11       1.106809326481e-10       3.461726875460e-16       1.079312968273e-13       5.001259576823e-18       8.243438704501e-10       7.332761177117e-11       5.061097231168e-14 
   12       1.112965282592e-10       3.038852897442e-16       1.092237363657e-13       5.914699838319e-18       7.202403821467e-10       6.481119607056e-11       1.099791842238e-14 
   13       1.121203124524e-10       2.936604407052e-16       1.146340473168e-13       6.905532557079e-18       6.347717750677e-10       5.787213442257e-11      -1.886913803660e-14 
   14       1.131760740128e-10       3.071186536286e-16       1.221470560303e-13       7.973993270357e-18       5.636692083987e-10       5.197092278722e-11      -3.463812121370e-14 
   15       1.143909218010e-10       3.329261717884e-16       1.304317095562e-13       9.120313965715e-18       5.038213528138e-10       4.681074545350e-11      -3.716690351260e-14 
   16       1.157257311701e-10       3.691545120652e-16       1.388431613686e-13       1.034472056712e-17       4.529364252405e-10       4.243380176423e-11      -3.026458471261e-14 
   17       1.171847853313e-10       4.213872551881e-16       1.472830783253e-13       1.164743083835e-17       4.092867793936e-10       3.869032005205e-11      -1.919005520213e-14 
   18       1.187426789352e-10       4.947773545028e-16       1.558611067105e-13       1.302865255583e-17       3.714029524369e-10       3.539689847141e-11      -8.834132825045e-15 
   19       1.204019663510e-10       5.895559992884e-16       1.648040306448e-13       1.448858324252e-17       3.386837879398e-10       3.249717592742e-11      -1.723614580114e-15 
   20       1.221224829678e-10       7.037052906074e-16       1.743331382679e-13       1.602740743839e-17       3.098681031631e-10       2.990365998589e-11       5.365820806158e-16 
   21       1.239113092678e-10       8.366043051664e-16       1.843797045897e-13       1.764529925722e-17       2.845030579272e-10       2.761526424152e-11      -1.399726095257e-15 
   22       1.257598933009e-10       9.878092958196e-16       1.947052678907e-13       1.934241938932e-17       2.619815113999e-10       2.561426315401e-11      -5.704550964641e-15 
   23       1.276700257196e-10       1.157572456920e-15       2.049954472383e-13       2.111891905958e-17       2.419936719838e-10       2.383598796593e-11      -1.061744063203e-14 
   24       1.296260536106e-10       1.346182008605e-15       2.148640234239e-13       2.297493697854e-17       2.240773245664e-10       2.218649427420e-11      -1.429795676675e-14 
   25       1.316303487979e-10       1.553744337774e-15       2.239987671910e-13       2.491060493617e-17       2.080214667987e-10       2.068096253422e-11      -1.596946492799e-14 
   26       1.336762027879e-10       1.780542675338e-15       2.321230765805e-13       2.692604412956e-17       1.935352308192e-10       1.934863083949e-11      -1.538145797255e-14 
   27       1.357653507604e-10       2.028600014743e-15       2.391670285331e-13       2.902137050665e-17       1.804449336157e-10       1.815770632148e-11      -1.325952138324e-14 
   28       1.378920573739e-10       2.300471617341e-15       2.451476994283e-13       3.119669225349e-17       1.685250769287e-10       1.705208195030e-11      -1.070641490870e-14 
   29       1.400604808590e-10       2.597656838224e-15       2.501132160697e-13       3.345211837595e-17       1.577147189063e-10       1.602850353874e-11      -8.321045064661e-15 
   30       1.422648209200e-10       2.921322820211e-15       2.541513600391e-13       3.578775158701e-17       1.478975945067e-10       1.509304604804e-11      -6.637558234793e-15 
   31       1.444891500821e-10       3.272547921195e-15       2.573550837802e-13       3.820368825334e-17       1.388732677429e-10       1.424365071002e-11      -6.138029938399e-15 
   32       1.467384467959e-10       3.652126643859e-15       2.596848668494e-13       4.070002901860e-17       1.305951761725e-10       1.347354668147e-11      -6.646042878529e-15 
   33       1.490166293832e-10       4.060673962194e-15       2.610543971332e-13       4.327687200012e-17       1.230049079527e-10       1.276738403507e-11      -7.693488165345e-15 
   34       1.513210037990e-10       4.498783773606e-15       2.613637495829e-13       4.593431145065e-17       1.159963416149e-10       1.210549111540e-11      -8.755013110821e-15 
   35       1.536553246562e-10       4.967445005694e-15       2.604952962846e-13       4.867244270859e-17       1.095334872546e-10       1.148518677902e-11      -9.558335158910e-15 
   36       1.560196135780e-10       5.467766423569e-15       2.583142246996e-13       5.149135912437e-17       1.035642780348e-10       1.090603075949e-11      -9.874377728325e-15 
   37       1.584095717992e-10       6.000808481407e-15       2.546921796892e-13       5.439115016726e-17       9.801081141883e-11       1.036525859438e-11      -9.519432035661e-15 
   38       1.608294420870e-10       6.567381454896e-15       2.495891130211e-13       5.737189898992e-17       9.285874109218e-11       9.862648139756e-12      -8.651760336807e-15 
   39       1.632822344887e-10       7.168175519880e-15       2.429985426615e-13       6.043368419547e-17       8.809179672821e-11       9.396767567167e-12      -7.576794193281e-15 
   40       1.657655497208e-10       7.803808744895e-15       2.349265891077e-13       6.357658056533e-17       8.366460168763e-11       8.963354611398e-12      -6.673851001400e-15 
   41       1.682737280887e-10       8.474849799028e-15       2.253860421024e-13       6.680065603455e-17       7.951848456902e-11       8.556857824061e-12      -6.294130377498e-15 
   42       1.708065167151e-10       9.181906355576e-15       2.143744523186e-13       7.010596129433e-17       7.564120850355e-11       8.176260943246e-12      -6.403339209866e-15 
   43       1.733622581597e-10       9.925557492132e-15       2.018901579160e-13       7.349253690212e-17       7.202241181227e-11       7.820736423395e-12      -6.830730561875e-15 
   44       1.759350318331e-10       1.070632592951e-14       1.879386236151e-13       7.696041592072e-17       6.863568099797e-11       7.487896306707e-12      -7.363281824891e-15 
   45       1.785180967362e-10       1.152469208944e-14       1.725197614553e-13       8.050962017071e-17       6.544797442424e-11       7.174647319698e-12      -7.794696381109e-15 
   46       1.811163579348e-10       1.238114800697e-14       1.555847149735e-13       8.414014802084e-17       6.245426334240e-11       6.880356502912e-12      -8.095978972016e-15 
   47       1.837369695408e-10       1.327615467934e-14       1.370666300815e-13       8.785198268099e-17       5.965107411849e-11       6.604418678498e-12      -8.291451641446e-15 
   48       1.863856672825e-10       1.421012472047e-14       1.168920368442e-13       9.164509512230e-17       5.702604213150e-11       6.345290983140e-12      -8.411962499115e-15 
   49       1.890666024925e-10       1.518342048003e-14       9.498038236362e-14       9.551944371364e-17       5.455725058194e-11       6.100423940907e-12      -8.495267874435e-15 
   50       1.917821094435e-10       1.619633685020e-14       7.125863671701e-14       9.947497404595e-17       5.221983102064e-11       5.867033489139e-12      -8.579187116942e-15 
   51       1.945323180568e-10       1.724904854787e-14       4.571086838048e-14       1.035116191918e-16       5.000941106884e-11       5.644824015355e-12      -8.677989936841e-15 
   52       1.973151491041e-10       1.834164527146e-14       1.834131805522e-14       1.076292988882e-16       4.792388840666e-11       5.433885313134e-12      -8.800260251276e-15 
   53       2.001262065337e-10       1.947414322275e-14      -1.083926180381e-14       1.118279190086e-16       4.595641344051e-11       5.233887573726e-12      -8.955604398052e-15 
   54       2.029586083202e-10       2.064648250531e-14      -4.181336478361e-14       1.161073712085e-16       4.409506983960e-11       5.044052033172e-12      -9.154693178709e-15 
   55       2.058055536138e-10       2.185855376150e-14      -7.456367532434e-14       1.204675412510e-16       4.232650705824e-11       4.863435224168e-12      -9.404663241772e-15 
   56       2.086691584991e-10       2.311029179214e-14      -1.090964783296e-13       1.249083372174e-16       4.064862649799e-11       4.691931667916e-12      -9.693887136248e-15 
   57       2.115535189496e-10       2.440160063717e-14      -1.454236407662e-13       1.294296676840e-16       3.906048729522e-11       4.529468858574e-12      -1.000349345420e-14 
   58       2.144621056622e-10       2.573232494429e-14      -1.835559711490e-13       1.340314336391e-16       3.755846856376e-11       4.375698720678e-12      -1.031154026641e-14 
   59       2.173977015163e-10       2.710224850664e-14      -2.235032573503e-13       1.387135284674e-16       3.613610390496e-11       4.229980474623e-12      -1.059287636055e-14 
   60       2.203623390336e-10       2.851109280035e-14      -2.652743044094e-13       1.434758379330e-16       3.478391591766e-11       4.091363502146e-12      -1.081900247928e-14 
   61       2.233574916878e-10       2.995848320360e-14      -3.088745038600e-13       1.483182557348e-16       3.349204680718e-11       3.958851099825e-12      -1.096478048774e-14 
   62       2.263848394980e-10       3.144384210116e-14      -3.542978186243e-13       1.532407342888e-16       3.225921459519e-11       3.832299684150e-12      -1.103063457769e-14 
   63       2.294455650840e-10       3.296646908182e-14      -4.015330579481e-13       1.582432453672e-16       3.108548271123e-11       3.711691935726e-12      -1.102510980545e-14 
   64       2.325400615726e-10       3.452556870127e-14      -4.505661474173e-13       1.633257660008e-16       2.996956603672e-11       3.596865662372e-12      -1.095854086090e-14 
   65       2.356678781123e-10       3.612024799424e-14      -5.013800884438e-13       1.684882789567e-16       2.890875413302e-11       3.487505576961e-12      -1.084313058528e-14 
   66       2.388276653866e-10       3.774951398671e-14      -5.539549177519e-13       1.737307732160e-16       2.789883446958e-11       3.383135075267e-12      -1.069302848889e-14 
   67       2.420171211285e-10       3.941227120814e-14      -6.082676668648e-13       1.790532444516e-16       2.693401565201e-11       3.283108013814e-12      -1.052440926890e-14 
   68       2.452339557489e-10       4.110740622816e-14      -6.642933900610e-13       1.844557030710e-16       2.600847346698e-11       3.186782864902e-12      -1.035240931950e-14 
   69       2.484791382217e-10       4.283406671884e-14      -7.220085806780e-13       1.899381991723e-16       2.512152440004e-11       3.094104538292e-12      -1.018103993104e-14 
   70       2.517542130413e-10       4.459143472839e-14      -7.813883774420e-13       1.955008035261e-16       2.427336730882e-11       3.005126222952e-12      -1.001136190145e-14 
   71       2.550603104141e-10       4.637864440229e-14      -8.424055442944e-13       2.011436011168e-16       2.346351872331e-11       2.919833946945e-12      -9.844444897314e-15 
   72       2.583981178623e-10       4.819478172119e-14      -9.050304572050e-13       2.068666918138e-16       2.269077757812e-11       2.838143019650e-12      -9.681365613366e-15 
   73       2.617678518277e-10       5.003888423877e-14      -9.692310909849e-13       2.126701910422e-16       2.195318994493e-11       2.759894473991e-12      -9.523205931987e-15 
   74       2.651692292755e-10       5.190994081963e-14      -1.034973006099e-12       2.185542304546e-16       2.124801376481e-11       2.684851508656e-12      -9.371051082726e-15 
   75       2.686014392984e-10       5.380689137717e-14      -1.102219335480e-12       2.245189586017e-16       2.057168358062e-11       2.612695930321e-12      -9.225987801811e-15 
   76       2.720636370799e-10       5.572859165740e-14      -1.170931882449e-12       2.305645337169e-16       1.992069514848e-11       2.543111207108e-12      -9.088888687149e-15 
   77       2.755565925482e-10       5.767370075577e-14      -1.241074674786e-12       2.366910990664e-16       1.929452346632e-11       2.476056978445e-12      -8.959723932851e-15 
   78       2.790812921690e-10       5.964077251700e-14      -1.312611037812e-12       2.428988043025e-16       1.869317525994e-11       2.411538372214e-12      -8.838120159270e-15 
   79       2.826384258583e-10       6.162828770641e-14      -1.385502550219e-12       2.491878134530e-16       1.811630017071e-11       2.349522081455e-12      -8.723556959120e-15 
   80       2.862283692975e-10       6.363465303100e-14      -1.459709053668e-12       2.555583054304e-16       1.756317435080e-11       2.289934582625e-12      -8.615360672756e-15 
   81       2.898511662486e-10       6.565820016065e-14      -1.535188662385e-12       2.620104745414e-16       1.703268405841e-11       2.232660353858e-12      -8.512698163442e-15 
   82       2.935065108694e-10       6.769718474917e-14      -1.611897772755e-12       2.685445309963e-16       1.652330925300e-11       2.177540093217e-12      -8.414570592637e-15 
   83       2.971937300291e-10       6.974978545546e-14      -1.689791072926e-12       2.751607014187e-16       1.603310719054e-11       2.124368936953e-12      -8.319807195258e-15 
   84       3.009121271372e-10       7.181416235201e-14      -1.768821193015e-12       2.818592262097e-16       1.556018431842e-11       2.072947579907e-12      -8.227369776446e-15 
   85       3.046621178607e-10       7.388864542011e-14      -1.848937568105e-12       2.886403500246e-16       1.510423777922e-11       2.023249276796e-12      -8.137337836326e-15 
   86       3.084442511363e-10       7.597157565373e-14      -1.930087403476e-12       2.955043306444e-16       1.466524056644e-11       1.975277388184e-12      -8.050076104657e-15 
   87       3.122588529583e-10       7.806124846940e-14      -2.012216020740e-12       3.024514424296e-16       1.424296786886e-11       1.929014060405e-12      -7.965937351991e-15 
   88       3.161060147702e-10       8.015591372543e-14      -2.095266861394e-12       3.094819767773e-16       1.383698887242e-11       1.884419332933e-12      -7.885261387155e-15 
   89       3.199855818556e-10       8.225377574117e-14      -2.179181490378e-12       3.165962425778e-16       1.344665856223e-11       1.841430245742e-12      -7.808374054736e-15 
   90       3.238971417292e-10       8.435299331619e-14      -2.263899599630e-12       3.237945666705e-16       1.307110952450e-11       1.799959946686e-12      -7.735586232571e-15 
   91       3.278400125282e-10       8.645167974955e-14      -2.349359011650e-12       3.310772943012e-16       1.270924374851e-11       1.759896798859e-12      -7.667192829222e-15 
   92       3.318132314031e-10       8.854790285902e-14      -2.435495683047e-12       3.384447895784e-16       1.235972442852e-11       1.721103487967e-12      -7.603471781472e-15 
   93       3.358158584674e-10       9.063971738364e-14      -2.522244778940e-12       3.458974441786e-16       1.202129295916e-11       1.683450028380e-12      -7.544560991601e-15 
   94       3.398479661515e-10       9.272526772436e-14      -2.609544073250e-12       3.534357039689e-16       1.169379226473e-11       1.646920398582e-12      -7.490070144665e-15 
   95       3.439097778768e-10       9.480270076309e-14      -2.697331068766e-12       3.610600472509e-16       1.137728293745e-11       1.611520367936e-12      -7.439408383301e-15 
   96       3.480013585750e-10       9.687013531364e-14      -2.785541989887e-12       3.687709774315e-16       1.107172807354e-11       1.577244605441e-12      -7.391898523791e-15 
   97       3.521226074120e-10       9.892566258553e-14      -2.874111800879e-12       3.765690235923e-16       1.077698953904e-11       1.544076252413e-12      -7.346774378039e-15 
   98       3.562732505097e-10       1.009673466477e-13      -2.962974224132e-12       3.844547410595e-16       1.049282423566e-11       1.511986495181e-12      -7.303178075564e-15 
   99       3.604528336694e-10       1.029932248922e-13      -3.052061758415e-12       3.924287119737e-16       1.021888036657e-11       1.480934137777e-12      -7.260157385480e-15 
  100       3.646607150939e-10       1.050013084981e-13      -3.141305697132e-12       4.004915458599e-16       9.954693702265e-12       1.450865174622e-12      -7.216663038479e-15 
  101       3.688960581110e-10       1.069895828952e-13      -3.230636146578e-12       4.086438801970e-16       9.699683846386e-12       1.421712363222e-12      -7.171546048821e-15 
  102       3.731578238956e-10       1.089560082275e-13      -3.319982044198e-12       4.168863809878e-16       9.453150501539e-12       1.393394796854e-12      -7.123555036316e-15 
  103       3.774447641927e-10       1.108985198174e-13      -3.409271176839e-12       4.252197433287e-16       9.214269735138e-12       1.365817477258e-12      -7.071333548307e-15 
  104       3.817556823448e-10       1.128150794469e-13      -3.498430847628e-12       4.336446707045e-16       8.982280668750e-12       1.338894013657e-12      -7.013751434147e-15 
  105       3.860902722059e-10       1.147038360935e-13      -3.587389939863e-12       4.421618084598e-16       8.757082310425e-12       1.312619132330e-12      -6.950955717351e-15 
  106       3.904483795130e-10       1.165629878734e-13      -3.676077167257e-12       4.507718023606e-16       8.538710759485e-12       1.287005210997e-12      -6.883457349222e-15 
  107       3.948297394249e-10       1.183907341717e-13      -3.764420475290e-12       4.594753193996e-16       8.327154360741e-12       1.262059856080e-12      -6.811810813877e-15 
