# dimensionless total [l(l+1)/2pi] C_l's
# for l=2 to 3000, i.e. number of multipoles equal to 2999
#
# -> if you prefer output in CAMB/HealPix/LensPix units/order, set 'format' to 'camb' in input file
# -> if you don't want to see such a header, set 'headers' to 'no' in input file
# -> for CMB lensing (phi), these are C_l^phi-phi for the lensing potential.
#    Remember the conversion factors:
#    C_l^dd (deflection) = l(l+1) C_l^phi-phi
#    C_l^gg (shear/convergence) = 1/4 (l(l+1))^2 C_l^phi-phi
#
# 1:l     2:TT                     3:EE                     4:TE                     5:BB                     6:phiphi                 7:TPhi                   8:Ephi               
    2       1.379883198444e-10       4.164008207373e-15       3.514622027768e-13       0.000000000000e+00       8.207945203676e-09       4.523333276527e-10      -1.839938389905e-12 
    3       1.305148031072e-10       5.334533573407e-15       3.951351242051e-13       0.000000000000e+00       5.049159641492e-09       3.205429842611e-10      -1.393286450442e-12 
    4       1.234736685279e-10       4.611167026583e-15       3.695510947474e-13       0.000000000000e+00       3.508806896091e-09       2.426099214101e-10      -9.118302060236e-13 
    5       1.182202318971e-10       3.073667325833e-15       3.146764214001e-13       0.000000000000e+00       2.618472180307e-09       1.915713460427e-10      -5.066004098660e-13 
    6       1.146112019831e-10       1.717115224228e-15       2.533553514362e-13       0.000000000000e+00       2.045206247124e-09       1.557924819395e-10      -2.082282295772e-13 
    7       1.122553838100e-10       9.269862761713e-16       1.988379008471e-13       0.000000000000e+00       1.650019552076e-09       1.295221378104e-10      -1.813358834265e-14 
    8       1.108862480950e-10       5.975004080855e-16       1.569267006843e-13       0.000000000000e+00       1.363799988195e-09       1.096297993053e-10       7.867995124066e-14 
    9       1.102631600737e-10       4.790706964355e-16       1.289096231257e-13       0.000000000000e+00       1.148437109216e-09       9.423152476450e-11       1.055941538683e-13 
   10       1.101298538841e-10       4.078786830595e-16       1.134638372636e-13       0.000000000000e+00       9.815001409521e-10       8.203582155271e-11       8.846531001147e-14 
   11       1.104389369473e-10       3.426997188742e-16       1.078990346316e-13       0.000000000000e+00       8.271634703976e-10       7.252627591728e-11       5.142182241805e-14 
   12       1.110600628088e-10       2.988296016121e-16       1.091265903365e-13       0.000000000000e+00       7.226719793614e-10       6.406048365931e-11       1.181535644340e-14 
   13       1.118850860530e-10       2.869262644777e-16       1.144718514131e-13       0.000000000000e+00       6.368941183894e-10       5.720959610832e-11      -1.825703958377e-14 
   14       1.129608124302e-10       2.989781918510e-16       1.219608178863e-13       0.000000000000e+00       5.655363585404e-10       5.134573583418e-11      -3.447873805183e-14 
   15       1.141884582640e-10       3.234421157163e-16       1.302191525918e-13       0.000000000000e+00       5.054749817438e-10       4.633288010943e-11      -3.733117778139e-14 
   16       1.155330614428e-10       3.580747705181e-16       1.386169149388e-13       0.000000000000e+00       4.544116276331e-10       4.201950363065e-11      -3.066566430613e-14 
   17       1.169887302154e-10       4.082859718133e-16       1.470363897754e-13       0.000000000000e+00       4.106109887081e-10       3.826525703785e-11      -1.966687133217e-14 
   18       1.185373498273e-10       4.795196460837e-16       1.555646020706e-13       0.000000000000e+00       3.725973390129e-10       3.499648157774e-11      -9.199472447370e-15 
   19       1.201948368224e-10       5.720956853715e-16       1.644583629901e-13       0.000000000000e+00       3.397673030520e-10       3.216294417691e-11      -1.866448818145e-15 
   20       1.219308515935e-10       6.839623764437e-16       1.739807659376e-13       0.000000000000e+00       3.108545755874e-10       2.964242944698e-11       6.103430455777e-16 
   21       1.237331040608e-10       8.144090507777e-16       1.840357065668e-13       0.000000000000e+00       2.854045756640e-10       2.739284895238e-11      -1.190448078231e-15 
   22       1.255679643318e-10       9.629031335305e-16       1.943394960075e-13       0.000000000000e+00       2.628080978476e-10       2.536585364025e-11      -5.493514675617e-15 
   23       1.274554203776e-10       1.129796296527e-15       2.046021211222e-13       0.000000000000e+00       2.427542281136e-10       2.355687169028e-11      -1.050962435055e-14 
   24       1.294083017403e-10       1.315520110304e-15       2.144802821935e-13       0.000000000000e+00       2.247791038929e-10       2.194892859354e-11      -1.433797150094e-14 
   25       1.314141423191e-10       1.520121577716e-15       2.236500163509e-13       0.000000000000e+00       2.086710137140e-10       2.050479297532e-11      -1.617581303036e-14 
   26       1.334413922560e-10       1.743771709016e-15       2.318076134273e-13       0.000000000000e+00       1.941381102872e-10       1.917131244348e-11      -1.574599702898e-14 
   27       1.355039344424e-10       1.988526884933e-15       2.388868637497e-13       0.000000000000e+00       1.810059376779e-10       1.795104619079e-11      -1.370983113798e-14 
   28       1.376182331550e-10       2.256991951834e-15       2.449154430554e-13       0.000000000000e+00       1.690480166443e-10       1.685334211464e-11      -1.110632688684e-14 
   29       1.397886537290e-10       2.550535746141e-15       2.499319226848e-13       0.000000000000e+00       1.582032130398e-10       1.587029962962e-11      -8.568634372070e-15 
   30       1.420012995638e-10       2.870104834132e-15       2.540053185426e-13       0.000000000000e+00       1.483549871935e-10       1.497622183176e-11      -6.710866245489e-15 
   31       1.442320330805e-10       3.216602572518e-15       2.572156915792e-13       0.000000000000e+00       1.393023431899e-10       1.413800369581e-11      -6.097892206916e-15 
   32       1.464865621846e-10       3.591044048531e-15       2.595539668974e-13       0.000000000000e+00       1.309984881955e-10       1.335457879806e-11      -6.562177476443e-15 
   33       1.487728393891e-10       3.994450180806e-15       2.609852417963e-13       0.000000000000e+00       1.233846680325e-10       1.263083130370e-11      -7.618538868294e-15 
   34       1.510912254983e-10       4.427791760389e-15       2.614506598865e-13       0.000000000000e+00       1.163542757976e-10       1.196704007524e-11      -8.720034570752e-15 
   35       1.534405236465e-10       4.891948901200e-15       2.607851820367e-13       0.000000000000e+00       1.098712383934e-10       1.135956874340e-11      -9.575833822148e-15 
   36       1.558122443729e-10       5.387728865174e-15       2.587675614513e-13       0.000000000000e+00       1.038834241475e-10       1.079950183577e-11      -9.935784933036e-15 
   37       1.581943208466e-10       5.915879472852e-15       2.551916234527e-13       0.000000000000e+00       9.831277930527e-11       1.027539911968e-11      -9.595765989034e-15 
   38       1.605928041144e-10       6.477116609997e-15       2.500456106389e-13       0.000000000000e+00       9.314489889946e-11       9.785193422230e-12      -8.713193943150e-15 
   39       1.630162096624e-10       7.072097634620e-15       2.433925449451e-13       0.000000000000e+00       8.836340915955e-11       9.327652116678e-12      -7.599522092170e-15 
   40       1.654690998366e-10       7.701408162163e-15       2.353245244598e-13       0.000000000000e+00       8.392272607349e-11       8.898892256877e-12      -6.642071740178e-15 
   41       1.679526581447e-10       8.365610305248e-15       2.259302059117e-13       0.000000000000e+00       7.976393405743e-11       8.493948391293e-12      -6.201259883608e-15 
   42       1.704677841684e-10       9.065417248199e-15       2.151801970635e-13       0.000000000000e+00       7.587476396723e-11       8.112652152185e-12      -6.250284367503e-15 
   43       1.730122029426e-10       9.801567822531e-15       2.030073831612e-13       0.000000000000e+00       7.224485124446e-11       7.755272950127e-12      -6.626378691044e-15 
   44       1.755791028688e-10       1.057477769362e-14       1.893374728023e-13       0.000000000000e+00       6.884773652026e-11       7.420773389323e-12      -7.125889419511e-15 
   45       1.781605266827e-10       1.138570007771e-14       1.740984487207e-13       0.000000000000e+00       6.565030908409e-11       7.107333205970e-12      -7.550189888229e-15 
   46       1.807597081652e-10       1.223479611961e-14       1.572536160107e-13       0.000000000000e+00       6.264752270428e-11       6.814367388623e-12      -7.865713890309e-15 
   47       1.833817343234e-10       1.312242415246e-14       1.387774764085e-13       0.000000000000e+00       5.983587938047e-11       6.540924063497e-12      -8.087489469261e-15 
   48       1.860298876423e-10       1.404887159683e-14       1.186465856899e-13       0.000000000000e+00       5.720295969201e-11       6.285031105671e-12      -8.235132816169e-15 
   49       1.887054594888e-10       1.501435180612e-14       9.683956741562e-14       0.000000000000e+00       5.472675939915e-11       6.043622527219e-12      -8.333123341883e-15 
   50       1.914084562602e-10       1.601901599315e-14       7.333466460123e-14       0.000000000000e+00       5.238231487078e-11       5.813415988199e-12      -8.408047541101e-15 
   51       1.941403766980e-10       1.706300014553e-14       4.810157937258e-14       0.000000000000e+00       5.016523858952e-11       5.593996912625e-12      -8.478810453665e-15 
   52       1.969018659032e-10       1.814638539194e-14       2.110744203700e-14       0.000000000000e+00       4.807342536807e-11       5.385444278295e-12      -8.564242694226e-15 
   53       1.996917473275e-10       1.926918164695e-14      -7.681020131226e-15       0.000000000000e+00       4.610000908354e-11       5.187424492697e-12      -8.686028723053e-15 
   54       2.025068781898e-10       2.043132516610e-14      -3.829758500775e-14       0.000000000000e+00       4.423304228234e-11       4.999162539866e-12      -8.868839273134e-15 
   55       2.053437297626e-10       2.163272720087e-14      -7.077068846803e-14       0.000000000000e+00       4.245913863820e-11       4.819734020660e-12      -9.131996448341e-15 
   56       2.082039191807e-10       2.287343971902e-14      -1.051039480072e-13       0.000000000000e+00       4.077619394669e-11       4.649092330645e-12      -9.461740940751e-15 
   57       2.110897986022e-10       2.415352657028e-14      -1.412909796350e-13       0.000000000000e+00       3.918326410157e-11       4.487246116706e-12      -9.832307351206e-15 
   58       2.140027750426e-10       2.547301554916e-14      -1.793207963857e-13       0.000000000000e+00       3.767671673103e-11       4.333944745424e-12      -1.021359473847e-14 
   59       2.169432329933e-10       2.683189794097e-14      -2.191776786457e-13       0.000000000000e+00       3.625006519947e-11       4.188661952273e-12      -1.057096915042e-14 
   60       2.199104570407e-10       2.823012806778e-14      -2.608410444802e-13       0.000000000000e+00       3.489380260916e-11       4.050579490821e-12      -1.086506615518e-14 
   61       2.229034479607e-10       2.966752724794e-14      -3.042896527172e-13       0.000000000000e+00       3.359804050435e-11       3.918820629007e-12      -1.106094337068e-14 
   62       2.259237601195e-10       3.114347151094e-14      -3.495156080040e-13       0.000000000000e+00       3.236149263950e-11       3.793248873222e-12      -1.115838544948e-14 
   63       2.289731665424e-10       3.265713266209e-14      -3.965132835353e-13       0.000000000000e+00       3.118422232443e-11       3.673820327549e-12      -1.116808191818e-14 
   64       2.320527735770e-10       3.420756426576e-14      -4.452752733414e-13       0.000000000000e+00       3.006494018020e-11       3.560341410383e-12      -1.110297465977e-14 
   65       2.351629718617e-10       3.579369815851e-14      -4.957924000904e-13       0.000000000000e+00       2.900092713200e-11       3.452460431093e-12      -1.097835711326e-14 
   66       2.383033872939e-10       3.741434096210e-14      -5.480537228905e-13       0.000000000000e+00       2.798795740187e-11       3.349659166681e-12      -1.081197347316e-14 
   67       2.414728319983e-10       3.906817059666e-14      -6.020465450924e-13       0.000000000000e+00       2.702022150162e-11       3.251244438441e-12      -1.062411788903e-14 
   68       2.446700580308e-10       4.075387579758e-14      -6.577556437053e-13       0.000000000000e+00       2.609187711908e-11       3.156529909880e-12      -1.043371588404e-14 
   69       2.478963054350e-10       4.247061528813e-14      -7.151607588897e-13       0.000000000000e+00       2.520223882509e-11       3.065443085101e-12      -1.024542485108e-14 
   70       2.511531847784e-10       4.421764581077e-14      -7.742386074491e-13       0.000000000000e+00       2.435150643037e-11       2.978026737330e-12      -1.006008597460e-14 
   71       2.544418921084e-10       4.599418752291e-14      -8.349636043191e-13       0.000000000000e+00       2.353919539568e-11       2.894256075545e-12      -9.878507252400e-15 
   72       2.577631804506e-10       4.779942416735e-14      -8.973078504623e-13       0.000000000000e+00       2.276410145876e-11       2.814035186127e-12      -9.701459938626e-15 
   73       2.611173313077e-10       4.963250324277e-14      -9.612411207628e-13       0.000000000000e+00       2.202426526126e-11       2.737193474511e-12      -9.529674986767e-15 
   74       2.645041261580e-10       5.149253617424e-14      -1.026730851921e-12       0.000000000000e+00       2.131693697568e-11       2.663482106843e-12      -9.363839492658e-15 
   75       2.679228179535e-10       5.337859848366e-14      -1.093742130350e-12       0.000000000000e+00       2.063854093227e-11       2.592570451631e-12      -9.204593137472e-15 
   76       2.713725887771e-10       5.528966676062e-14      -1.162238061386e-12       0.000000000000e+00       1.998556279265e-11       2.524131919293e-12      -9.052521251259e-15 
   77       2.748540821637e-10       5.722441592885e-14      -1.232180981416e-12       0.000000000000e+00       1.935747603712e-11       2.458127418112e-12      -8.908140406088e-15 
   78       2.783680997217e-10       5.918138514827e-14      -1.303531445826e-12       0.000000000000e+00       1.875428735006e-11       2.394567363193e-12      -8.771903721185e-15 
   79       2.819151215317e-10       6.115903662766e-14      -1.376247863069e-12       0.000000000000e+00       1.817564522701e-11       2.333425166891e-12      -8.644200441690e-15 
   80       2.854952876142e-10       6.315575449920e-14      -1.450286490384e-12       0.000000000000e+00       1.762082351910e-11       2.274635513640e-12      -8.525352312359e-15 
   81       2.891083793969e-10       6.516984369292e-14      -1.525601429508e-12       0.000000000000e+00       1.708870497763e-11       2.218092634782e-12      -8.415609951265e-15 
   82       2.927538011823e-10       6.719952881132e-14      -1.602144622389e-12       0.000000000000e+00       1.657776479848e-11       2.163648583396e-12      -8.315149223491e-15 
   83       2.964305616157e-10       6.924295300378e-14      -1.679865846902e-12       0.000000000000e+00       1.608605416668e-11       2.111111509124e-12      -8.224067614835e-15 
   84       3.001376890903e-10       7.129824701236e-14      -1.758713731071e-12       0.000000000000e+00       1.561167363021e-11       2.060293884009e-12      -8.142269894958e-15 
   85       3.038755976829e-10       7.336375192588e-14      -1.838638998317e-12       0.000000000000e+00       1.515431943350e-11       2.011170144788e-12      -8.069111271714e-15 
   86       3.076449147361e-10       7.543783146189e-14      -1.919591754845e-12       0.000000000000e+00       1.471396455483e-11       1.963742142847e-12      -8.003688155671e-15 
   87       3.114460559803e-10       7.751880513187e-14      -2.001520531612e-12       0.000000000000e+00       1.429038356745e-11       1.917990644199e-12      -7.944938204781e-15 
   88       3.152792142943e-10       7.960494829509e-14      -2.084372297162e-12       0.000000000000e+00       1.388314441657e-11       1.873874443826e-12      -7.891634837399e-15 
   89       3.191443484661e-10       8.169449221247e-14      -2.168092470454e-12       0.000000000000e+00       1.349160019619e-11       1.831329480025e-12      -7.842381745300e-15 
   90       3.230411719537e-10       8.378562410047e-14      -2.252624933695e-12       0.000000000000e+00       1.311488092612e-11       1.790267948745e-12      -7.795607406698e-15 
   91       3.269691416455e-10       8.587648718493e-14      -2.337912045173e-12       0.000000000000e+00       1.275188532881e-11       1.750577417931e-12      -7.749559599261e-15 
   92       3.309274466212e-10       8.796518075494e-14      -2.423894652088e-12       0.000000000000e+00       1.240127260634e-11       1.712119941867e-12      -7.702299913129e-15 
   93       3.349152868994e-10       9.004978762119e-14      -2.510512235416e-12       0.000000000000e+00       1.206178040316e-11       1.674765587768e-12      -7.652117754576e-15 
   94       3.389327820491e-10       9.212846109792e-14      -2.597703341554e-12       0.000000000000e+00       1.173325125857e-11       1.638500707274e-12      -7.598855501387e-15 
   95       3.429801790890e-10       9.419935126351e-14      -2.685405239620e-12       0.000000000000e+00       1.141574604744e-11       1.603334387273e-12      -7.542773433427e-15 
   96       3.470575675152e-10       9.626057914596e-14      -2.773553809657e-12       0.000000000000e+00       1.110922785443e-11       1.569265080841e-12      -7.484148267999e-15 
   97       3.511648720428e-10       9.831023715291e-14      -2.862083557273e-12       0.000000000000e+00       1.081355822840e-11       1.536280193956e-12      -7.423273431135e-15 
   98       3.553018453469e-10       1.003463895017e-13      -2.950927628287e-12       0.000000000000e+00       1.052849343684e-11       1.504355672207e-12      -7.360459328894e-15 
   99       3.594680608040e-10       1.023670726493e-13      -3.040017823374e-12       0.000000000000e+00       1.025368072028e-11       1.473455587513e-12      -7.296033618659e-15 
  100       3.636629052332e-10       1.043702957227e-13      -3.129284612707e-12       0.000000000000e+00       9.988654546725e-12       1.443531724831e-12      -7.230341480436e-15 
  101       3.678855716379e-10       1.063540409485e-13      -3.218657150605e-12       0.000000000000e+00       9.732832866056e-12       1.414523168871e-12      -7.163745888149e-15 
  102       3.721350519465e-10       1.083162640831e-13      -3.308063290174e-12       0.000000000000e+00       9.485513364480e-12       1.386355890810e-12      -7.096627880934e-15 
  103       3.764101297541e-10       1.102548948431e-13      -3.397429597950e-12       0.000000000000e+00       9.245869718933e-12       1.358942335004e-12      -7.029386834443e-15 
  104       3.807096334123e-10       1.121678897427e-13      -3.486682365928e-12       0.000000000000e+00       9.013138837589e-12       1.332202404667e-12      -6.962375798407e-15 
  105       3.850332498695e-10       1.140533978111e-13      -3.575750771787e-12       0.000000000000e+00       8.787219454990e-12       1.306130537620e-12      -6.895696976946e-15 
  106       3.893808077484e-10       1.159096181670e-13      -3.664564174852e-12       0.000000000000e+00       8.568147792001e-12       1.280736963200e-12      -6.829378997792e-15 
  107       3.937520224694e-10       1.177347506040e-13      -3.753051182129e-12       0.000000000000e+00       8.355912163574e-12       1.256026936432e-12      -6.763438941984e-15 
