# dimensionless total [l(l+1)/2pi] C_l's
# for l=2 to 3000, i.e. number of multipoles equal to 2999
#
# -> if you prefer output in CAMB/HealPix/LensPix units/order, set 'format' to 'camb' in input file
# -> if you don't want to see such a header, set 'headers' to 'no' in input file
# -> for CMB lensing (phi), these are C_l^phi-phi for the lensing potential.
#    Remember the conversion factors:
#    C_l^dd (deflection) = l(l+1) C_l^phi-phi
#    C_l^gg (shear/convergence) = 1/4 (l(l+1))^2 C_l^phi-phi
#
# 1:l     2:TT                     3:EE                     4:TE                     5:BB                     6:phiphi                 7:TPhi                   8:Ephi               
    2       1.390794545443e-10       4.174473067070e-15       3.503931724079e-13       0.000000000000e+00       8.174136768188e-09       4.589214905331e-10      -1.840211442198e-12 
    3       1.313559974515e-10       5.336204137619e-15       3.944409354580e-13       0.000000000000e+00       5.027610722994e-09       3.249027746413e-10      -1.391816958076e-12 
    4       1.241314579251e-10       4.599878101801e-15       3.690096610107e-13       0.000000000000e+00       3.494297461873e-09       2.457983573839e-10      -9.088446863658e-13 
    5       1.187535621090e-10       3.057127353381e-15       3.141705970803e-13       0.000000000000e+00       2.607981890802e-09       1.939931544552e-10      -5.029620163046e-13 
    6       1.150438987304e-10       1.704016935087e-15       2.528682715576e-13       0.000000000000e+00       2.037209562544e-09       1.576817020754e-10      -2.047841433812e-13 
    7       1.126276429663e-10       9.202668669270e-16       1.984143242029e-13       0.000000000000e+00       1.643689210533e-09       1.310809792461e-10      -1.549769997249e-14 
    8       1.112298496694e-10       5.950298538940e-16       1.565983092329e-13       0.000000000000e+00       1.358610070133e-09       1.109724695844e-10       8.019545237106e-14 
    9       1.105497818580e-10       4.777298363885e-16       1.287132011552e-13       0.000000000000e+00       1.144059718086e-09       9.536621362759e-11       1.059990187176e-13 
   10       1.103981550896e-10       4.062920171821e-16       1.134084572244e-13       0.000000000000e+00       9.777376242818e-10       8.296706890711e-11       8.804429295187e-14 
   11       1.106711863365e-10       3.411709434745e-16       1.079334695087e-13       0.000000000000e+00       8.243438704501e-10       7.332761177117e-11       5.061097231168e-14 
   12       1.112851025459e-10       2.979698356508e-16       1.092267372357e-13       0.000000000000e+00       7.202403821467e-10       6.481119607056e-11       1.099791842238e-14 
   13       1.121070946726e-10       2.867537869283e-16       1.146380820570e-13       0.000000000000e+00       6.347717750677e-10       5.787213442257e-11      -1.886913803660e-14 
   14       1.131609559434e-10       2.991430608358e-16       1.221523570426e-13       0.000000000000e+00       5.636692083987e-10       5.197092278722e-11      -3.463812121370e-14 
   15       1.143737993803e-10       3.238036598687e-16       1.304385361081e-13       0.000000000000e+00       5.038213528138e-10       4.681074545350e-11      -3.716690351260e-14 
   16       1.157065041613e-10       3.588068747674e-16       1.388517994966e-13       0.000000000000e+00       4.529364252405e-10       4.243380176423e-11      -3.026458471261e-14 
   17       1.171633569457e-10       4.097360805521e-16       1.472938405197e-13       0.000000000000e+00       4.092867793936e-10       3.869032005205e-11      -1.919005520213e-14 
   18       1.187189554266e-10       4.817440508924e-16       1.558743313982e-13       0.000000000000e+00       3.714029524369e-10       3.539689847141e-11      -8.834132825045e-15 
   19       1.203758566431e-10       5.750618274963e-16       1.648200815555e-13       0.000000000000e+00       3.386837879398e-10       3.249717592742e-11      -1.723614580114e-15 
   20       1.220938982096e-10       6.876714000232e-16       1.743524035376e-13       0.000000000000e+00       3.098681031631e-10       2.990365998589e-11       5.365820806158e-16 
   21       1.238801625328e-10       8.189517755787e-16       1.844025958890e-13       0.000000000000e+00       2.845030579272e-10       2.761526424152e-11      -1.399726095257e-15 
   22       1.257260992030e-10       9.684591832230e-16       1.947322192692e-13       0.000000000000e+00       2.619815113999e-10       2.561426315401e-11      -5.704550964641e-15 
   23       1.276335002164e-10       1.136445841969e-15       2.050269140257e-13       0.000000000000e+00       2.419936719838e-10       2.383598796593e-11      -1.061744063203e-14 
   24       1.295867137222e-10       1.323200049304e-15       2.149004808382e-13       0.000000000000e+00       2.240773245664e-10       2.218649427420e-11      -1.429795676675e-14 
   25       1.315881125622e-10       1.528828320910e-15       2.240407090035e-13       0.000000000000e+00       2.080214667987e-10       2.068096253422e-11      -1.596946492799e-14 
   26       1.336309891113e-10       1.753614073414e-15       2.321710134792e-13       0.000000000000e+00       1.935352308192e-10       1.934863083949e-11      -1.538145797255e-14 
   27       1.357170794861e-10       1.999580539482e-15       2.392214864733e-13       0.000000000000e+00       1.804449336157e-10       1.815770632148e-11      -1.325952138324e-14 
   28       1.378406492843e-10       2.269283276949e-15       2.452092176916e-13       0.000000000000e+00       1.685250769287e-10       1.705208195030e-11      -1.070641490870e-14 
   29       1.400058579762e-10       2.564221980659e-15       2.501823451882e-13       0.000000000000e+00       1.577147189063e-10       1.602850353874e-11      -8.321045064661e-15 
   30       1.422069066085e-10       2.885564191632e-15       2.542286594861e-13       0.000000000000e+00       1.478975945067e-10       1.509304604804e-11      -6.637558234793e-15 
   31       1.444278691598e-10       3.234388723898e-15       2.574411193764e-13       0.000000000000e+00       1.388732677429e-10       1.424365071002e-11      -6.138029938399e-15 
   32       1.466737259511e-10       3.611490566764e-15       2.597802076948e-13       0.000000000000e+00       1.305951761725e-10       1.347354668147e-11      -6.646042878529e-15 
   33       1.489483974399e-10       4.017485232483e-15       2.611596125402e-13       0.000000000000e+00       1.230049079527e-10       1.276738403507e-11      -7.693488165345e-15 
   34       1.512491919470e-10       4.452967210088e-15       2.614794056953e-13       0.000000000000e+00       1.159963416149e-10       1.210549111540e-11      -8.755013110821e-15 
   35       1.535798667379e-10       4.918926046014e-15       2.606219518004e-13       0.000000000000e+00       1.095334872546e-10       1.148518677902e-11      -9.558335158910e-15 
   36       1.559404463831e-10       5.416471171087e-15       2.584524268476e-13       0.000000000000e+00       1.035642780348e-10       1.090603075949e-11      -9.874377728325e-15 
   37       1.583266352843e-10       5.946663755216e-15       2.548424598716e-13       0.000000000000e+00       9.801081141883e-11       1.036525859438e-11      -9.519432035661e-15 
   38       1.607426792934e-10       6.510314822271e-15       2.497519811829e-13       0.000000000000e+00       9.285874109218e-11       9.862648139756e-12      -8.651760336807e-15 
   39       1.631915916997e-10       7.108115342334e-15       2.431744821418e-13       0.000000000000e+00       8.809179672821e-11       9.396767567167e-12      -7.576794193281e-15 
   40       1.656709767234e-10       7.740684230127e-15       2.351160515392e-13       0.000000000000e+00       8.366460168763e-11       8.963354611398e-12      -6.673851001400e-15 
   41       1.681751782612e-10       8.408591056239e-15       2.255894418552e-13       0.000000000000e+00       7.951848456902e-11       8.556857824061e-12      -6.294130377498e-15 
   42       1.707039464769e-10       9.112444459948e-15       2.145921599542e-13       0.000000000000e+00       7.564120850355e-11       8.176260943246e-12      -6.403339209866e-15 
   43       1.732556268836e-10       9.852824544696e-15       2.021224939211e-13       0.000000000000e+00       7.202241181227e-11       7.820736423395e-12      -6.830730561875e-15 
   44       1.758243019387e-10       1.063025511594e-14       1.881858520930e-13       0.000000000000e+00       6.863568099797e-11       7.487896306707e-12      -7.363281824891e-15 
   45       1.784032335838e-10       1.144521775565e-14       1.727820840398e-13       0.000000000000e+00       6.544797442424e-11       7.174647319698e-12      -7.794696381109e-15 
   46       1.809973290301e-10       1.229820578857e-14       1.558622660755e-13       0.000000000000e+00       6.245426334240e-11       6.880356502912e-12      -8.095978972016e-15 
   47       1.836137442321e-10       1.318968159524e-14       1.373594707823e-13       0.000000000000e+00       5.965107411849e-11       6.604418678498e-12      -8.291451641446e-15 
   48       1.862582166417e-10       1.412005925415e-14       1.172001481392e-13       0.000000000000e+00       5.702604213150e-11       6.345290983140e-12      -8.411962499115e-15 
   49       1.889348991886e-10       1.508970266281e-14       9.530365818668e-14       0.000000000000e+00       5.455725058194e-11       6.100423940907e-12      -8.495267874435e-15 
   50       1.916461275545e-10       1.609890836234e-14       7.159687826785e-14       0.000000000000e+00       5.221983102064e-11       5.867033489139e-12      -8.579187116942e-15 
   51       1.943920326852e-10       1.714785287439e-14       4.606378328617e-14       0.000000000000e+00       5.000941106884e-11       5.644824015355e-12      -8.677989936841e-15 
   52       1.971705361250e-10       1.823662782154e-14       1.870851563040e-14       0.000000000000e+00       4.792388840666e-11       5.433885313134e-12      -8.800260251276e-15 
   53       1.999772423861e-10       1.936525143735e-14      -1.045827684874e-14       0.000000000000e+00       4.595641344051e-11       5.233887573726e-12      -8.955604398052e-15 
   54       2.028052697903e-10       2.053366596754e-14      -4.141919878205e-14       0.000000000000e+00       4.409506983960e-11       5.044052033172e-12      -9.154693178709e-15 
   55       2.056478178483e-10       2.174176428938e-14      -7.415704976421e-14       0.000000000000e+00       4.232650705824e-11       4.863435224168e-12      -9.404663241772e-15 
   56       2.085070037991e-10       2.298948346695e-14      -1.086782259614e-13       0.000000000000e+00       4.064862649799e-11       4.691931667916e-12      -9.693887136248e-15 
   57       2.113869249627e-10       2.427672988510e-14      -1.449947079843e-13       0.000000000000e+00       3.906048729522e-11       4.529468858574e-12      -1.000349345420e-14 
   58       2.142910533526e-10       2.560335063895e-14      -1.831174227263e-13       0.000000000000e+00       3.755846856376e-11       4.375698720678e-12      -1.031154026641e-14 
   59       2.172221731356e-10       2.696913207352e-14      -2.230562812238e-13       0.000000000000e+00       3.613610390496e-11       4.229980474623e-12      -1.059287636055e-14 
   60       2.201823180923e-10       2.837379832333e-14      -2.648202165167e-13       0.000000000000e+00       3.478391591766e-11       4.091363502146e-12      -1.081900247928e-14 
   61       2.231729632888e-10       2.981697743214e-14      -3.084147507773e-13       0.000000000000e+00       3.349204680718e-11       3.958851099825e-12      -1.096478048774e-14 
   62       2.261957918514e-10       3.129809412943e-14      -3.538339729122e-13       0.000000000000e+00       3.225921459519e-11       3.832299684150e-12      -1.103063457769e-14 
   63       2.292519901079e-10       3.281645028543e-14      -4.010668192362e-13       0.000000000000e+00       3.108548271123e-11       3.711691935726e-12      -1.102510980545e-14 
   64       2.323419551682e-10       3.437125276748e-14      -4.500993455751e-13       0.000000000000e+00       2.996956603672e-11       3.596865662372e-12      -1.095854086090e-14 
   65       2.354652404499e-10       3.596161095094e-14      -5.009146867320e-13       0.000000000000e+00       2.890875413302e-11       3.487505576961e-12      -1.084313058528e-14 
   66       2.386205012048e-10       3.758653423020e-14      -5.534930159533e-13       0.000000000000e+00       2.789883446958e-11       3.383135075267e-12      -1.069302848889e-14 
   67       2.418054400446e-10       3.924492952958e-14      -6.078115043949e-13       0.000000000000e+00       2.693401565201e-11       3.283108013814e-12      -1.052440926890e-14 
   68       2.450177724515e-10       4.093568570563e-14      -6.638453487448e-13       0.000000000000e+00       2.600847346698e-11       3.186782864902e-12      -1.035240931950e-14 
   69       2.482584722530e-10       4.265795217700e-14      -7.215711864888e-13       0.000000000000e+00       2.512152440004e-11       3.094104538292e-12      -1.018103993104e-14 
   70       2.515290889279e-10       4.441091254027e-14      -7.809643030307e-13       0.000000000000e+00       2.427336730882e-11       3.005126222952e-12      -1.001136190145e-14 
   71       2.548307579291e-10       4.619370241203e-14      -8.419976117868e-13       0.000000000000e+00       2.346351872331e-11       2.919833946945e-12      -9.844444897314e-15 
   72       2.581641722966e-10       4.800540916208e-14      -9.046416409710e-13       0.000000000000e+00       2.269077757812e-11       2.838143019650e-12      -9.681365613366e-15 
   73       2.615295542698e-10       4.984507164668e-14      -9.688645203795e-13       0.000000000000e+00       2.195318994493e-11       2.759894473991e-12      -9.523205931987e-15 
   74       2.649266269000e-10       5.171167994178e-14      -1.034631968175e-12       0.000000000000e+00       2.124801376481e-11       2.684851508656e-12      -9.371051082726e-15 
   75       2.683545856634e-10       5.360417507625e-14      -1.101907277673e-12       0.000000000000e+00       2.057168358062e-11       2.612695930321e-12      -9.225987801811e-15 
   76       2.718125918350e-10       5.552141380335e-14      -1.170652414506e-12       0.000000000000e+00       1.992069514848e-11       2.543111207108e-12      -9.088888687149e-15 
   77       2.753014192306e-10       5.746205608822e-14      -1.240831568319e-12       0.000000000000e+00       1.929452346632e-11       2.476056978445e-12      -8.959723932851e-15 
   78       2.788220575775e-10       5.942465652320e-14      -1.312408227746e-12       0.000000000000e+00       1.869317525994e-11       2.411538372214e-12      -8.838120159270e-15 
   79       2.823751999903e-10       6.140769650169e-14      -1.385344136880e-12       0.000000000000e+00       1.811630017071e-11       2.349522081455e-12      -8.723556959120e-15 
   80       2.859612252829e-10       6.340958323443e-14      -1.459599304829e-12       0.000000000000e+00       1.756317435080e-11       2.289934582625e-12      -8.615360672756e-15 
   81       2.895801802802e-10       6.542864876585e-14      -1.535132015271e-12       0.000000000000e+00       1.703268405841e-11       2.232660353858e-12      -8.512698163442e-15 
   82       2.932317621299e-10       6.746314899037e-14      -1.611898836009e-12       0.000000000000e+00       1.652330925300e-11       2.177540093217e-12      -8.414570592637e-15 
   83       2.969153006141e-10       6.951126266871e-14      -1.689854628521e-12       0.000000000000e+00       1.603310719054e-11       2.124368936953e-12      -8.319807195258e-15 
   84       3.006301020261e-10       7.157114989057e-14      -1.768952193029e-12       0.000000000000e+00       1.556018431842e-11       2.072947579907e-12      -8.227369776446e-15 
   85       3.043765850465e-10       7.364114075320e-14      -1.849141115159e-12       0.000000000000e+00       1.510423777922e-11       2.023249276796e-12      -8.137337836326e-15 
   86       3.081553016163e-10       7.571957630364e-14      -1.930368744710e-12       0.000000000000e+00       1.466524056644e-11       1.975277388184e-12      -8.050076104657e-15 
   87       3.119665806737e-10       7.780475188857e-14      -2.012580546520e-12       0.000000000000e+00       1.424296786886e-11       1.929014060405e-12      -7.965937351991e-15 
   88       3.158105165428e-10       7.989491716974e-14      -2.095720103890e-12       0.000000000000e+00       1.383698887242e-11       1.884419332933e-12      -7.885261387155e-15 
   89       3.196869573223e-10       8.198827613939e-14      -2.179729122019e-12       0.000000000000e+00       1.344665856223e-11       1.841430245742e-12      -7.808374054736e-15 
   90       3.235954932733e-10       8.408298713564e-14      -2.264547431425e-12       0.000000000000e+00       1.307110952450e-11       1.799959946686e-12      -7.735586232571e-15 
   91       3.275354452085e-10       8.617716285791e-14      -2.350112991379e-12       0.000000000000e+00       1.270924374851e-11       1.759896798859e-12      -7.667192829222e-15 
   92       3.315058528800e-10       8.826887038236e-14      -2.436361893329e-12       0.000000000000e+00       1.235972442852e-11       1.721103487967e-12      -7.603471781472e-15 
   93       3.355057795386e-10       9.035616331918e-14      -2.523229430679e-12       0.000000000000e+00       1.202129295916e-11       1.683450028380e-12      -7.544560991601e-15 
   94       3.395353032269e-10       9.243718378363e-14      -2.610653484718e-12       0.000000000000e+00       1.169379226473e-11       1.646920398582e-12      -7.490070144665e-15 
   95       3.435946538020e-10       9.451007586135e-14      -2.698571656641e-12       0.000000000000e+00       1.137728293745e-11       1.611520367936e-12      -7.439408383301e-15 
   96       3.476839028750e-10       9.657295528341e-14      -2.786920264400e-12       0.000000000000e+00       1.107172807354e-11       1.577244605441e-12      -7.391898523791e-15 
   97       3.518029565397e-10       9.862390988293e-14      -2.875634360770e-12       0.000000000000e+00       1.077698953904e-11       1.544076252413e-12      -7.346774378039e-15 
   98       3.559515481013e-10       1.006610000517e-13      -2.964647751415e-12       0.000000000000e+00       1.049282423566e-11       1.511986495181e-12      -7.303178075564e-15 
   99       3.601292308042e-10       1.026822591969e-13      -3.053893012952e-12       0.000000000000e+00       1.021888036657e-11       1.480934137777e-12      -7.260157385480e-15 
  100       3.643353705612e-10       1.046856941975e-13      -3.143301511020e-12       0.000000000000e+00       9.954693702265e-12       1.450865174622e-12      -7.216663038479e-15 
  101       3.685691386817e-10       1.066692858611e-13      -3.232803418341e-12       0.000000000000e+00       9.699683846386e-12       1.421712363222e-12      -7.171546048821e-15 
  102       3.728295046000e-10       1.086309893804e-13      -3.322327732790e-12       0.000000000000e+00       9.453150501539e-12       1.393394796854e-12      -7.123555036316e-15 
  103       3.771152286042e-10       1.105687347899e-13      -3.411802295460e-12       0.000000000000e+00       9.214269735138e-12       1.365817477258e-12      -7.071333548307e-15 
  104       3.814251220743e-10       1.124804781786e-13      -3.501154458606e-12       0.000000000000e+00       8.982280668750e-12       1.338894013657e-12      -7.013751434147e-15 
  105       3.857588838966e-10       1.143643622233e-13      -3.590313153333e-12       0.000000000000e+00       8.757082310425e-12       1.312619132330e-12      -6.950955717351e-15 
  106       3.901163640067e-10       1.162185782931e-13      -3.679207136208e-12       0.000000000000e+00       8.538710759485e-12       1.287005210997e-12      -6.883457349222e-15 
  107       3.944973016895e-10       1.180413186322e-13      -3.767764389217e-12       0.000000000000e+00       8.327154360741e-12       1.262059856080e-12      -6.811810813877e-15 
