# dimensionless total lensed [l(l+1)/2pi] C_l's
# for l=2 to 2500, i.e. number of multipoles equal to 2499
#
# -> if you prefer output in CAMB/HealPix/LensPix units/order, set 'format' to 'camb' in input file
# -> if you don't want to see such a header, set 'headers' to 'no' in input file
# -> for CMB lensing (phi), these are C_l^phi-phi for the lensing potential.
#    Remember the conversion factors:
#    C_l^dd (deflection) = l(l+1) C_l^phi-phi
#    C_l^gg (shear/convergence) = 1/4 (l(l+1))^2 C_l^phi-phi
#
# 1:l     2:TT                     3:EE                     4:TE                     5:BB                     6:phiphi                 7:TPhi                   8:Ephi               
    2       1.422967325048e-10       4.161639597195e-15       3.794090109702e-13       2.266433738920e-19       8.228281736950e-09       4.314490269507e-10      -1.840039235151e-12 
    3       1.347237375918e-10       5.343474936529e-15       4.237233349266e-13       4.533805215086e-19       5.062588263325e-09       3.069465330525e-10      -1.394928418744e-12 
    4       1.273649132519e-10       4.632036967507e-15       3.945150751725e-13       7.558407142649e-19       3.517620917379e-09       2.326919918552e-10      -9.149044094940e-13 
    5       1.217335473087e-10       3.097343709372e-15       3.342159141960e-13       1.134143821447e-18       2.624634896640e-09       1.838317245521e-10      -5.103163529568e-13 
    6       1.177682365209e-10       1.735224574727e-15       2.672131474871e-13       1.588435362402e-18       2.049779720072e-09       1.495298957886e-10      -2.117238519317e-13 
    7       1.150880037501e-10       9.376777557842e-16       2.077127823587e-13       2.118883821592e-18       1.653543156296e-09       1.243405436729e-10      -2.077151843580e-14 
    8       1.134130294994e-10       6.038463437883e-16       1.619867070461e-13       2.725677610913e-18       1.366637514154e-09       1.052387272764e-10       7.719322214793e-14 
    9       1.124929861541e-10       4.847116763679e-16       1.314040561268e-13       3.409021768798e-18       1.150811902780e-09       9.041575751938e-11       1.052107842100e-13 
   10       1.121013946716e-10       4.143991585806e-16       1.145186743567e-13       4.169134491948e-18       9.835379955215e-10       7.867101578714e-11       8.889955902302e-14 
   11       1.121735129062e-10       3.498801559222e-16       1.084140282563e-13       5.006243598538e-18       8.285451786861e-10       6.949717380819e-11       5.221827051173e-14 
   12       1.125610755783e-10       3.061741862111e-16       1.097346101974e-13       5.920583021336e-18       7.238384115560e-10       6.141315090936e-11       1.272554348501e-14 
   13       1.132110749275e-10       2.945233373953e-16       1.154929462891e-13       6.912389425331e-18       6.378940650558e-10       5.486428346000e-11      -1.755112977842e-14 
   14       1.140701851587e-10       3.073198566000e-16       1.234447557649e-13       7.981899037490e-18       5.663978127748e-10       4.914334410423e-11      -3.426727959068e-14 
   15       1.151277203465e-10       3.328084338664e-16       1.321917828016e-13       9.129344766301e-18       5.062237626948e-10       4.434482723738e-11      -3.748913563701e-14 
   16       1.163111608668e-10       3.682795322951e-16       1.409760088942e-13       1.035495367633e-17       4.550681217353e-10       4.021604823024e-11      -3.107591539384e-14 
   17       1.176400941164e-10       4.192316753250e-16       1.495839045535e-13       1.165894486855e-17       4.111906375299e-10       3.661631837066e-11      -2.016416700718e-14 
   18       1.190531952345e-10       4.911559713351e-16       1.583092849190e-13       1.304152762519e-17       3.731117911717e-10       3.347341670592e-11      -9.646227057300e-15 
   19       1.205614010408e-10       5.844304595617e-16       1.673858570435e-13       1.450290106858e-17       3.402268501186e-10       3.074460144376e-11      -2.158343551526e-15 
   20       1.221535551443e-10       6.971020096011e-16       1.769698323704e-13       1.604325144645e-17       3.112665566084e-10       2.832648264765e-11       5.407048227323e-16 
   21       1.238325232310e-10       8.285400625157e-16       1.870590122126e-13       1.766275454424e-17       2.857753439050e-10       2.617438134113e-11      -1.023633586887e-15 
   22       1.255739874713e-10       9.782583040265e-16       1.975162358025e-13       1.936157271061e-17       2.631429511713e-10       2.423070390702e-11      -5.143332312773e-15 
   23       1.273807984057e-10       1.146487952315e-15       2.079914613879e-13       2.113985867120e-17       2.430578254901e-10       2.248516286345e-11      -1.008560279432e-14 
   24       1.292431950042e-10       1.333487874300e-15       2.180253625179e-13       2.299775250203e-17       2.250552009682e-10       2.092115191927e-11      -1.398884328495e-14 
   25       1.311649493448e-10       1.539289670296e-15       2.273326218059e-13       2.493538708818e-17       2.089229942762e-10       1.952276685214e-11      -1.599999948489e-14 
   26       1.331372926796e-10       1.764087306094e-15       2.356822867101e-13       2.695288447408e-17       1.943688792135e-10       1.825979412618e-11      -1.575370275229e-14 
   27       1.351528979721e-10       2.009875696973e-15       2.429525306669e-13       2.905036111017e-17       1.812179894267e-10       1.711269242800e-11      -1.384658609653e-14 
   28       1.371962411576e-10       2.279201145200e-15       2.490867320843e-13       3.122792535990e-17       1.692433223515e-10       1.605839034204e-11      -1.126889709148e-14 
   29       1.392765669753e-10       2.573549065193e-15       2.541504250539e-13       3.348568606012e-17       1.583835896284e-10       1.509527848532e-11      -8.678782707148e-15 
   30       1.413995794985e-10       2.894072239416e-15       2.582869775687e-13       3.582374538007e-17       1.485220513764e-10       1.422021655584e-11      -6.749879611987e-15 
   31       1.435602637450e-10       3.241861571330e-15       2.616448490577e-13       3.824219879602e-17       1.394573812284e-10       1.342174919931e-11      -6.107588345488e-15 
   32       1.457613673581e-10       3.617840207157e-15       2.641812206730e-13       4.074114589126e-17       1.311426625047e-10       1.269128976079e-11      -6.583624332879e-15 
   33       1.479991094082e-10       4.022816392988e-15       2.657840413341e-13       4.332068339512e-17       1.235189880310e-10       1.201444463294e-11      -7.669541836218e-15 
   34       1.502627653136e-10       4.457545546263e-15       2.663235384895e-13       4.598090388705e-17       1.164795385330e-10       1.137374352597e-11      -8.794953763197e-15 
   35       1.525549679004e-10       4.922880799271e-15       2.656612705733e-13       4.872190114505e-17       1.099882097015e-10       1.077132845290e-11      -9.668951162037e-15 
   36       1.548767620377e-10       5.419666159538e-15       2.636415363398e-13       5.154376678311e-17       1.039928512855e-10       1.021349393445e-11      -1.004930359294e-14 
   37       1.572247203903e-10       5.948698891546e-15       2.601214518061e-13       5.444658844767e-17       9.841535116012e-11       9.703702650718e-12      -9.738263913282e-15 
   38       1.596024022639e-10       6.510750777108e-15       2.550875776893e-13       5.743044810058e-17       9.324126214952e-11       9.239987548722e-12      -8.886135908602e-15 
   39       1.620115119215e-10       7.106547416392e-15       2.485784396955e-13       6.049542329980e-17       8.845413939577e-11       8.816193923589e-12      -7.791670076205e-15 
   40       1.644480769646e-10       7.736757904964e-15       2.406550490620e-13       6.364158773882e-17       8.400827885477e-11       8.422271922592e-12      -6.826887470988e-15 
   41       1.669056107185e-10       8.402013502732e-15       2.313768969244e-13       6.686900846174e-17       7.984463206333e-11       8.047311118660e-12      -6.339616701255e-15 
   42       1.693872543303e-10       9.102979656991e-15       2.207172759708e-13       7.017773627147e-17       7.595091611634e-11       7.690588405021e-12      -6.311565577821e-15 
   43       1.718965953207e-10       9.840301328938e-15       2.086226776771e-13       7.356781230177e-17       7.231677612610e-11       7.353587172482e-12      -6.596908870696e-15 
   44       1.744339315605e-10       1.061458067486e-14       1.950353967604e-13       7.703927046151e-17       6.891574827549e-11       7.036875876773e-12      -7.012628858431e-15 
   45       1.769976611149e-10       1.142636860056e-14       1.798988193725e-13       8.059213376318e-17       6.571470694866e-11       6.740232732550e-12      -7.379432481176e-15 
   46       1.795897294858e-10       1.227614136162e-14       1.631760890330e-13       8.422640232248e-17       6.270859570337e-11       6.463262737018e-12      -7.664501771075e-15 
   47       1.822112462376e-10       1.316431339589e-14       1.448363598034e-13       8.794206153802e-17       5.989389833667e-11       6.204821834202e-12      -7.877513696435e-15 
   48       1.848606778533e-10       1.409124066078e-14       1.248495436124e-13       9.173908498250e-17       5.725816384181e-11       5.962753682292e-12      -8.031318707023e-15 
   49       1.875336149545e-10       1.505721816817e-14       1.031862484508e-13       9.561743406215e-17       5.477934207648e-11       5.733817456175e-12      -8.142132930023e-15 
   50       1.902250811588e-10       1.606247768900e-14       7.981734888860e-14       9.957705759003e-17       5.243242119316e-11       5.514615352910e-12      -8.228701617866e-15 
   51       1.929377385395e-10       1.710718585209e-14       5.471270357417e-14       1.036178911595e-16       5.021300515770e-11       5.304839408007e-12      -8.309075900373e-15 
   52       1.956755070696e-10       1.819144126809e-14       2.784198278158e-14       1.077398570118e-16       4.811898774347e-11       5.104781192983e-12      -8.403293340922e-15 
   53       1.984411071603e-10       1.931527191564e-14      -8.250715668207e-16       1.119428637714e-16       4.614349701005e-11       4.914384583809e-12      -8.534470589612e-15 
   54       2.012359464870e-10       2.047863268417e-14      -3.131872500752e-14       1.162268061004e-16       4.427457458381e-11       4.733220608287e-12      -8.728947167553e-15 
   55       2.040605996479e-10       2.168144067037e-14      -6.366458380573e-14       1.205915724329e-16       4.249882163031e-11       4.560703361089e-12      -9.007489348042e-15 
   56       2.069166459495e-10       2.292369696480e-14      -9.786805594344e-14       1.250370712135e-16       4.081413215705e-11       4.396858182889e-12      -9.356013532447e-15 
   57       2.098050899337e-10       2.420539081570e-14      -1.339261684696e-13       1.295632105728e-16       3.921956117119e-11       4.241700256633e-12      -9.747841781854e-15 
   58       2.127257204276e-10       2.552646356132e-14      -1.718318716354e-13       1.341698907918e-16       3.771147257406e-11       4.094994842092e-12      -1.015180443717e-14 
   59       2.156770204679e-10       2.688680764367e-14      -2.115739330982e-13       1.388570042716e-16       3.628337298811e-11       3.956241515491e-12      -1.053203559552e-14 
   60       2.186560772234e-10       2.828626562223e-14      -2.531368321265e-13       1.436244355035e-16       3.492574558394e-11       3.824658409138e-12      -1.084776858659e-14 
   61       2.216598817159e-10       2.972456501264e-14      -2.965033180723e-13       1.484720761926e-16       3.362869136264e-11       3.699399690979e-12      -1.106273343325e-14 
   62       2.246897726726e-10       3.120110794244e-14      -3.416629962051e-13       1.533998746631e-16       3.239092173061e-11       3.580300701704e-12      -1.117627683386e-14 
   63       2.277478348412e-10       3.271513231629e-14      -3.886054900949e-13       1.584077975397e-16       3.121249871381e-11       3.467272865776e-12      -1.119889625279e-14 
   64       2.308355521419e-10       3.426576886216e-14      -4.373179265631e-13       1.634958160149e-16       3.009213004927e-11       3.360077016048e-12      -1.114335248138e-14 
   65       2.339537616886e-10       3.585203810889e-14      -4.877849144221e-13       1.686639063000e-16       2.902709209057e-11       3.258315033923e-12      -1.102476977804e-14 
   66       2.371026078088e-10       3.747284736363e-14      -5.399885232147e-13       1.739120500757e-16       2.801315271325e-11       3.161421489507e-12      -1.086073600829e-14 
   67       2.402814960651e-10       3.912698768941e-14      -5.939082619541e-13       1.792402349432e-16       2.704449422021e-11       3.068655281762e-12      -1.067140278483e-14 
   68       2.434896842220e-10       4.081324989059e-14      -6.495221580096e-13       1.846484631177e-16       2.611526626520e-11       2.979290148020e-12      -1.047564301585e-14 
   69       2.467282969791e-10       4.253080651597e-14      -7.068102951423e-13       1.901367785454e-16       2.522478234589e-11       2.893249704982e-12      -1.027839560083e-14 
   70       2.499986387524e-10       4.427890218550e-14      -7.657519574696e-13       1.957052461165e-16       2.437324259898e-11       2.810586656974e-12      -1.008092455097e-14 
   71       2.533015636910e-10       4.605674145179e-14      -8.263245995028e-13       2.013539445586e-16       2.356016217500e-11       2.731292096810e-12      -9.884534011941e-15 
   72       2.566374459875e-10       4.786348882134e-14      -8.885038530236e-13       2.070829670983e-16       2.278433583221e-11       2.655292232119e-12      -9.690567570490e-15 
   73       2.600061501892e-10       4.969826877571e-14      -9.522635339603e-13       2.128924221228e-16       2.204380253043e-11       2.582445111674e-12      -9.500407560924e-15 
   74       2.634070015083e-10       5.156016579272e-14      -1.017575649265e-12       2.187824338418e-16       2.133581002493e-11       2.512537351720e-12      -9.315474371641e-15 
   75       2.668387561334e-10       5.344822436764e-14      -1.084410403787e-12       2.247531429494e-16       2.065677946028e-11       2.445280862299e-12      -9.137225751654e-15 
   76       2.703001939512e-10       5.536139465651e-14      -1.152735652487e-12       2.308047004420e-16       2.000319330134e-11       2.380388950198e-12      -8.967072656437e-15 
   77       2.737920871265e-10       5.729835791555e-14      -1.222515126528e-12       2.369372463097e-16       1.937452432535e-11       2.317827885993e-12      -8.806110601735e-15 
   78       2.773155382309e-10       5.925766912038e-14      -1.293709894693e-12       2.431509281439e-16       1.877077890133e-11       2.257605476996e-12      -8.655337833315e-15 
   79       2.808713730252e-10       6.123780744384e-14      -1.366278884930e-12       2.494459081481e-16       1.819160483070e-11       2.199694140988e-12      -8.515732075642e-15 
   80       2.844601235338e-10       6.323717516208e-14      -1.440178879853e-12       2.558223636596e-16       1.763627487484e-11       2.144029260223e-12      -8.388248126974e-15 
   81       2.880820111179e-10       6.525409656078e-14      -1.515364512245e-12       2.622804876710e-16       1.710367028274e-11       2.090507535439e-12      -8.273815454453e-15 
   82       2.917369295498e-10       6.728681684117e-14      -1.591788260563e-12       2.688204893513e-16       1.659226431868e-11       2.038985339869e-12      -8.173335789205e-15 
   83       2.954244280864e-10       6.933350102626e-14      -1.669400444436e-12       2.754425945676e-16       1.610010578985e-11       1.989277073249e-12      -8.087680721427e-15 
   84       2.991439946268e-10       7.139229997251e-14      -1.748149936414e-12       2.821470426896e-16       1.562529297909e-11       1.941201523588e-12      -8.017273201443e-15 
   85       3.028959961964e-10       7.346156337481e-14      -1.827986442628e-12       2.889340752546e-16       1.516752179850e-11       1.894733388786e-12      -7.960757596656e-15 
   86       3.066808640665e-10       7.553966023183e-14      -1.908858593722e-12       2.958039463704e-16       1.472676527890e-11       1.849873973043e-12      -7.916103723830e-15 
   87       3.104987958258e-10       7.762491491356e-14      -1.990713269664e-12       3.027569267175e-16       1.430279787509e-11       1.806604585697e-12      -7.880994080706e-15 
   88       3.143497434973e-10       7.971560719520e-14      -2.073495607276e-12       3.097933040073e-16       1.389518723548e-11       1.764885702093e-12      -7.852814447920e-15 
   89       3.182334016558e-10       8.180997229117e-14      -2.157149007781e-12       3.169133834414e-16       1.350328597192e-11       1.724656124442e-12      -7.828644490920e-15 
   90       3.221491955450e-10       8.390620088903e-14      -2.241615144343e-12       3.241174881707e-16       1.312622342937e-11       1.685832142686e-12      -7.805248361883e-15 
   91       3.260962691951e-10       8.600243918346e-14      -2.326833969602e-12       3.314059597535e-16       1.276289745572e-11       1.648306695359e-12      -7.779065301631e-15 
   92       3.300734735393e-10       8.809678891022e-14      -2.412743723221e-12       3.387791586156e-16       1.241196617147e-11       1.611948530451e-12      -7.746200241548e-15 
   93       3.340797105654e-10       9.018733656258e-14      -2.499281711119e-12       3.462374717973e-16       1.207216618756e-11       1.576634420031e-12      -7.703317707358e-15 
   94       3.381150507856e-10       9.227224599336e-14      -2.586386760883e-12       3.537813365353e-16       1.174333988246e-11       1.542353169057e-12      -7.650497733385e-15 
   95       3.421797626463e-10       9.434967986782e-14      -2.673997151310e-12       3.614112210925e-16       1.142554812959e-11       1.509115770807e-12      -7.588794100513e-15 
   96       3.462739645672e-10       9.641777215089e-14      -2.762049891504e-12       3.691276183368e-16       1.111875391686e-11       1.476923366682e-12      -7.519372267437e-15 
   97       3.503976179467e-10       9.847462854167e-14      -2.850480739011e-12       3.769310463000e-16       1.082281859748e-11       1.445766860795e-12      -7.443512372055e-15 
   98       3.545505201655e-10       1.005183269080e-13      -2.939224217948e-12       3.848220487363e-16       1.053749814083e-11       1.415626534558e-12      -7.362612232865e-15 
   99       3.587322975916e-10       1.025469177210e-13      -3.028213637139e-12       3.928011956820e-16       1.026243938328e-11       1.386471661263e-12      -7.278190350355e-15 
  100       3.629423985844e-10       1.045584244895e-13      -3.117381108250e-12       4.008690840139e-16       9.997176279063e-12       1.358260120676e-12      -7.191888908399e-15 
  101       3.671800864997e-10       1.065508441949e-13      -3.206657563916e-12       4.090263380083e-16       9.741126151067e-12       1.330938013617e-12      -7.105476775648e-15 
  102       3.714444326935e-10       1.085221477253e-13      -3.295972775881e-12       4.172736099004e-16       9.493585941729e-12       1.304439276550e-12      -7.020852506924e-15 
  103       3.757343095269e-10       1.104702803103e-13      -3.385255373125e-12       4.256115804429e-16       9.253728463848e-12       1.278685296167e-12      -6.940047344616e-15 
  104       3.800486242981e-10       1.123932129174e-13      -3.474433446325e-12       4.340409401731e-16       9.020789833214e-12       1.253603433527e-12      -6.864788348655e-15 
  105       3.843870720959e-10       1.142891034126e-13      -3.563436415144e-12       4.425623291279e-16       8.794668677350e-12       1.229186276446e-12      -6.795114111153e-15 
  106       3.887494720775e-10       1.161561580816e-13      -3.652193448165e-12       4.511763899895e-16       8.575401258457e-12       1.205439709983e-12      -6.730576769922e-15 
  107       3.931355313269e-10       1.179925835948e-13      -3.740632923373e-12       4.598837869928e-16       8.362975891471e-12       1.182364546172e-12      -6.670663371082e-15 
