# dimensionless total lensed [l(l+1)/2pi] C_l's
# for l=2 to 2500, i.e. number of multipoles equal to 2499
#
# -> if you prefer output in CAMB/HealPix/LensPix units/order, set 'format' to 'camb' in input file
# -> if you don't want to see such a header, set 'headers' to 'no' in input file
# -> for CMB lensing (phi), these are C_l^phi-phi for the lensing potential.
#    Remember the conversion factors:
#    C_l^dd (deflection) = l(l+1) C_l^phi-phi
#    C_l^gg (shear/convergence) = 1/4 (l(l+1))^2 C_l^phi-phi
#
# 1:l     2:TT                     3:EE                     4:TE                     5:BB                     6:phiphi                 7:TPhi                   8:Ephi               
    2       1.423017694567e-10       4.161716010303e-15       3.794379039682e-13       2.266450115279e-19       8.228450917273e-09       4.314348345116e-10      -1.840050464929e-12 
    3       1.347283898474e-10       5.343571053330e-15       4.237524097248e-13       4.533837967517e-19       5.062546678940e-09       3.069373400139e-10      -1.394940446714e-12 
    4       1.273690387899e-10       4.632124159210e-15       3.945407253923e-13       7.558461729384e-19       3.517594124390e-09       2.326857073082e-10      -9.149129740153e-13 
    5       1.217371758770e-10       3.097403465536e-15       3.342361539791e-13       1.134152009331e-18       2.624624664221e-09       1.838269503894e-10      -5.103211915096e-13 
    6       1.177714236678e-10       1.735257480992e-15       2.672275087169e-13       1.588446825221e-18       2.049774858283e-09       1.495260475485e-10      -2.117258429960e-13 
    7       1.150907859303e-10       9.376943234765e-16       2.077218878276e-13       2.118899104992e-18       1.653542216740e-09       1.243373346588e-10      -2.077171661759e-14 
    8       1.134154629765e-10       6.038560014721e-16       1.619917638528e-13       2.725697260447e-18       1.366636896669e-09       1.052358262597e-10       7.719390629720e-14 
    9       1.124951260844e-10       4.847189245459e-16       1.314064524498e-13       3.409046329896e-18       1.150809551020e-09       9.041302688297e-11       1.052117195616e-13 
   10       1.121032761771e-10       4.144050366238e-16       1.145196086223e-13       4.169164509886e-18       9.835335557136e-10       7.866854475495e-11       8.890040020092e-14 
   11       1.121751208426e-10       3.498847229644e-16       1.084144337120e-13       5.006279618404e-18       8.285438754024e-10       6.949510333064e-11       5.221888424942e-14 
   12       1.125624526670e-10       3.061776450228e-16       1.097350833327e-13       5.920625587984e-18       7.238372685392e-10       6.141133334587e-11       1.272589973442e-14 
   13       1.132122218611e-10       2.945260653531e-16       1.154937707158e-13       6.912439083329e-18       6.378930513881e-10       5.486269374407e-11      -1.755103221639e-14 
   14       1.140711677617e-10       3.073219250039e-16       1.234460209430e-13       7.981956331063e-18       5.663969084951e-10       4.914189299365e-11      -3.426740002596e-14 
   15       1.151284944607e-10       3.328097221728e-16       1.321934107812e-13       9.129410239262e-18       5.062229506346e-10       4.434347316032e-11      -3.748936420849e-14 
   16       1.163117977957e-10       3.682804136607e-16       1.409778990993e-13       1.035502787201e-17       4.550673887542e-10       4.021481747726e-11      -3.107608924623e-14 
   17       1.176405541295e-10       4.192323700474e-16       1.495860912558e-13       1.165902832970e-17       4.111899719853e-10       3.661521200078e-11      -2.016415590387e-14 
   18       1.190534953269e-10       4.911563089409e-16       1.583116462608e-13       1.304162089391e-17       3.731111855458e-10       3.347237319466e-11      -9.646016974624e-15 
   19       1.205615789164e-10       5.844302318220e-16       1.673882540305e-13       1.450300468622e-17       3.402262948534e-10       3.074358678321e-11      -2.158007451611e-15 
   20       1.221536287638e-10       6.971011431819e-16       1.769722113587e-13       1.604336595348e-17       3.112660462957e-10       2.832552219564e-11       5.410307352635e-16 
   21       1.238325035268e-10       8.285388128595e-16       1.870614397120e-13       1.766288048020e-17       2.857748738191e-10       2.617348719052e-11      -1.023406881555e-15 
   22       1.255738804822e-10       9.782572199118e-16       1.975188788410e-13       1.936171061394e-17       2.631425167922e-10       2.422985485377e-11      -5.143201177797e-15 
   23       1.273806045225e-10       1.146487107975e-15       2.079943334838e-13       2.114000907919e-17       2.430574227369e-10       2.248435283711e-11      -1.008551803207e-14 
   24       1.292429102100e-10       1.333486748656e-15       2.180282756885e-13       2.299791595072e-17       2.250548266689e-10       2.092040235496e-11      -1.398873440244e-14 
   25       1.311645789943e-10       1.539288318321e-15       2.273355318272e-13       2.493556411224e-17       2.089226456421e-10       1.952208543494e-11      -1.599983677991e-14 
   26       1.331368532846e-10       1.764086506759e-15       2.356853633569e-13       2.695307560675e-17       1.943685539087e-10       1.825916295421e-11      -1.575351311180e-14 
   27       1.351523974420e-10       2.009875274451e-15       2.429557987005e-13       2.905056688321e-17       1.812176852937e-10       1.711209125736e-11      -1.384638819488e-14 
   28       1.371956734355e-10       2.279199629886e-15       2.490899860729e-13       3.122814630351e-17       1.692430374761e-10       1.605780504405e-11      -1.126868224484e-14 
   29       1.392759264247e-10       2.573545453385e-15       2.541535134866e-13       3.348592270298e-17       1.583833222011e-10       1.509470138137e-11      -8.678537856061e-15 
   30       1.413988661907e-10       2.894066754810e-15       2.582899208193e-13       3.582399824930e-17       1.485217998309e-10       1.421964834226e-11      -6.749594996048e-15 
   31       1.435594838840e-10       3.241855570437e-15       2.616478306651e-13       3.824246841715e-17       1.394571443755e-10       1.342119894888e-11      -6.107259178597e-15 
   32       1.457605297681e-10       3.617834500475e-15       2.641843713294e-13       4.074143278839e-17       1.311424392121e-10       1.269076559005e-11      -6.583253608935e-15 
   33       1.479982245096e-10       4.022810534357e-15       2.657873500553e-13       4.332098809094e-17       1.235187772138e-10       1.201395016428e-11      -7.669142676800e-15 
   34       1.502618439340e-10       4.457537976491e-15       2.663268591336e-13       4.598122690293e-17       1.164793392329e-10       1.137327773485e-11      -8.794547369797e-15 
   35       1.525540160206e-10       4.922870619117e-15       2.656644835088e-13       4.872224300123e-17       1.099880210220e-10       1.077088920904e-11      -9.668549987498e-15 
   36       1.548757780145e-10       5.419653861530e-15       2.636446100155e-13       5.154412799880e-17       1.039926724373e-10       1.021307912428e-11      -1.004890384752e-14 
   37       1.572236958950e-10       5.948686277194e-15       2.601244411014e-13       5.444696954122e-17       9.841518150230e-11       9.703310054278e-12      -9.737847042289e-15 
   38       1.596013327402e-10       6.510739474507e-15       2.550905401585e-13       5.743084958974e-17       9.324110106277e-11       9.239613724946e-12      -8.885688417776e-15 
   39       1.620104007145e-10       7.106538334439e-15       2.485814071852e-13       6.049584570191e-17       8.845398627786e-11       8.815833760125e-12      -7.791191121493e-15 
   40       1.644469370419e-10       7.736751046477e-15       2.406580207053e-13       6.364203157098e-17       8.400813316601e-11       8.421918440674e-12      -6.826391775568e-15 
   41       1.669044632209e-10       8.402007977273e-15       2.313798422790e-13       6.686947424103e-17       7.984449334847e-11       8.046956173267e-12      -6.339132593544e-15 
   42       1.693861161158e-10       9.102974400591e-15       2.207201736923e-13       7.017822451516e-17       7.595078393675e-11       7.690226440104e-12      -6.311116036380e-15 
   43       1.718954741135e-10       9.840295326315e-15       2.086255294334e-13       7.356832352757e-17       7.231665005926e-11       7.353216902569e-12      -6.596504342561e-15 
   44       1.744328239514e-10       1.061457299169e-14       1.950382317835e-13       7.703980518777e-17       6.891562794166e-11       7.036501204672e-12      -7.012264504731e-15 
   45       1.769965533400e-10       1.142635842141e-14       1.799016904058e-13       8.059269250910e-17       6.571459202203e-11       6.739862268960e-12      -7.379089339066e-15 
   46       1.795886078025e-10       1.227612804157e-14       1.631790387857e-13       8.422698560800e-17       6.270848586586e-11       6.462904499981e-12      -7.664161443545e-15 
   47       1.822101003726e-10       1.316429650640e-14       1.448394085192e-13       8.794266988393e-17       5.989379327555e-11       6.204481419692e-12      -7.877163282273e-15 
   48       1.848595018527e-10       1.409122003510e-14       1.248526844907e-13       9.173971891064e-17       5.725806326464e-11       5.962433733084e-12      -8.030952073740e-15 
   49       1.875324080831e-10       1.505719394907e-14       1.031894428153e-13       9.561809409561e-17       5.477924572709e-11       5.733517101184e-12      -8.141752059270e-15 
   50       1.902238477819e-10       1.606245030422e-14       7.982053058217e-14       9.957774425319e-17       5.243232885656e-11       5.514330514186e-12      -8.228315703413e-15 
   51       1.929364845108e-10       1.710715574336e-14       5.471581457185e-14       1.036186049775e-16       5.021291662543e-11       5.304566056914e-12      -8.308692816452e-15 
   52       1.956742387495e-10       1.819140880400e-14       2.784498562292e-14       1.077405985106e-16       4.811890280959e-11       5.104516406653e-12      -8.402916794522e-15 
   53       1.984398314177e-10       1.931523737249e-14      -8.221898944479e-16       1.119436334774e-16       4.614341547909e-11       4.914126786726e-12      -8.534099375853e-15 
   54       2.012346706996e-10       2.047859622588e-14      -3.131594899197e-14       1.162276045411e-16       4.427449627923e-11       4.732969826547e-12      -8.728574388375e-15 
   55       2.040593315617e-10       2.168140234441e-14      -6.366187331833e-14       1.205924001364e-16       4.249874639694e-11       4.560461042218e-12      -9.007103427998e-15 
   56       2.069153930757e-10       2.292365675327e-14      -9.786537686937e-14       1.250379287075e-16       4.081405984282e-11       4.396625556856e-12      -9.355605232674e-15 
   57       2.098038592911e-10       2.420534864322e-14      -1.339235029153e-13       1.295640983851e-16       3.921949162535e-11       4.241477815478e-12      -9.747406641673e-15 
   58       2.127245184093e-10       2.552641928658e-14      -1.718292206609e-13       1.341708094493e-16       3.771140565176e-11       4.094782230283e-12      -1.015134354644e-14 
   59       2.156758527014e-10       2.688676105059e-14      -2.115713195746e-13       1.388579543007e-16       3.628330855528e-11       3.956037415544e-12      -1.053155640175e-14 
   60       2.186549484241e-10       2.828621641085e-14      -2.531343037182e-13       1.436254174298e-16       3.492568352241e-11       3.824460422489e-12      -1.084728573679e-14 
   61       2.216587953342e-10       2.972451281406e-14      -2.965009428047e-13       1.484730905408e-16       3.362863157079e-11       3.699204538939e-12      -1.106226763174e-14 
   62       2.246887298811e-10       3.120105241339e-14      -3.416608335592e-13       1.534009219566e-16       3.239086410875e-11       3.580105481328e-12      -1.117584714880e-14 
   63       2.277468340212e-10       3.271507317143e-14      -3.886035812791e-13       1.584088783003e-16       3.121244316183e-11       3.467075480265e-12      -1.119851755847e-14 
   64       2.308345885450e-10       3.426570588380e-14      -4.373162917271e-13       1.634969307629e-16       3.009207646899e-11       3.359876306677e-12      -1.114303476084e-14 
   65       2.339528270851e-10       3.585197115708e-14      -4.877835497570e-13       1.686650555535e-16       2.902704038818e-11       3.258110917530e-12      -1.102451739636e-14 
   66       2.371016901235e-10       3.747277638675e-14      -5.399873979393e-13       1.739132343508e-16       2.801310280186e-11       3.161215101546e-12      -1.086054695665e-14 
   67       2.402805789999e-10       3.912691273512e-14      -5.939073151859e-13       1.792414547537e-16       2.704444602255e-11       3.068449124920e-12      -1.067126789523e-14 
   68       2.434887482228e-10       4.081317109427e-14      -6.495213037176e-13       1.846497189750e-16       2.611521971371e-11       2.979087893888e-12      -1.047554689362e-14 
   69       2.467273245780e-10       4.253072401566e-14      -7.068094534981e-13       1.901380709596e-16       2.522473737404e-11       2.893054860833e-12      -1.027832318040e-14 
   70       2.499976164020e-10       4.427881609612e-14      -7.657510649685e-13       1.957065755966e-16       2.437319913981e-11       2.810402146411e-12      -1.008086312036e-14 
   71       2.533004823419e-10       4.605665186076e-14      -8.263236114564e-13       2.013553116123e-16       2.356012016231e-11       2.731120169184e-12      -9.884473606160e-15 
   72       2.566363016882e-10       4.786339578400e-14      -8.885027461477e-13       2.070843722318e-16       2.278429520180e-11       2.655134368499e-12      -9.690501380229e-15 
   73       2.600049447074e-10       4.969817231059e-14      -9.522623090588e-13       2.128938658414e-16       2.204376322141e-11       2.582301927355e-12      -9.500332356669e-15 
   74       2.634057429744e-10       5.156006587662e-14      -1.017574334008e-12       2.187839166492e-16       2.133577198112e-11       2.512408495289e-12      -9.315390943168e-15 
   75       2.668374597054e-10       5.344812093057e-14      -1.084409055586e-12       2.247546653478e-16       2.065674263163e-11       2.445164911242e-12      -9.137139362902e-15 
   76       2.702988807194e-10       5.536128759000e-14      -1.152734352515e-12       2.308062629325e-16       2.000315764384e-11       2.380283555347e-12      -8.966992337188e-15 
   77       2.737907773152e-10       5.729824712471e-14      -1.222513945116e-12       2.369388493929e-16       1.937448979576e-11       2.317730722507e-12      -8.806044670825e-15 
   78       2.773142490982e-10       5.925755453995e-14      -1.293708880279e-12       2.431525723202e-16       1.877074545633e-11       2.257514530298e-12      -8.655292527871e-15 
   79       2.808701184383e-10       6.123768904139e-14      -1.366278061404e-12       2.494475939178e-16       1.819157242744e-11       2.199607755144e-12      -8.515711289291e-15 
   80       2.844589135299e-10       6.323705294134e-14      -1.440178243822e-12       2.558240915232e-16       1.763624347163e-11       2.143946188048e-12      -8.388253139262e-15 
   81       2.880808514505e-10       6.525397056499e-14      -1.515364030201e-12       2.622822581291e-16       1.710363983972e-11       2.090426990323e-12      -8.273844651489e-15 
   82       2.917358212199e-10       6.728668715667e-14      -1.591787865967e-12       2.688223029046e-16       1.659223479852e-11       2.038907049322e-12      -8.173384375508e-15 
   83       2.954233668596e-10       6.933336778606e-14      -1.669400034715e-12       2.754444517170e-16       1.610007715849e-11       1.989201334170e-12      -8.087740423002e-15 
   84       2.991429715955e-10       7.139216334475e-14      -1.748149378970e-12       2.821489439363e-16       1.562526520570e-11       1.941129112432e-12      -8.017332876138e-15 
   85       3.028950017090e-10       7.346142350268e-14      -1.827985609802e-12       2.889360210982e-16       1.516749485274e-11       1.894665005038e-12      -7.960806758458e-15 
   86       3.066798888239e-10       7.553951721411e-14      -1.908857373470e-12       2.958059373092e-16       1.472673913051e-11       1.849810074809e-12      -7.916133622435e-15 
   87       3.104978309700e-10       7.762476879958e-14      -1.990711567610e-12       3.027589632477e-16       1.430277249423e-11       1.806545364510e-12      -7.880997914479e-15 
   88       3.143487807032e-10       7.971545797961e-14      -2.073493348842e-12       3.097953866233e-16       1.389516259311e-11       1.764831056961e-12      -7.852787583462e-15 
   89       3.182324332265e-10       8.180981990862e-14      -2.157146140370e-12       3.169155126356e-16       1.350326204017e-11       1.724605635160e-12      -7.828584689250e-15 
   90       3.221482145099e-10       8.390604520862e-14      -2.241611639596e-12       3.241196644334e-16       1.312620018197e-11       1.685785042393e-12      -7.805156011229e-15 
   91       3.260952694109e-10       8.600228000310e-14      -2.326829825714e-12       3.314081835729e-16       1.276287486839e-11       1.648261842355e-12      -7.778943656835e-15 
   92       3.300724497951e-10       8.809662595078e-14      -2.412738967326e-12       3.387814304773e-16       1.241194422236e-11       1.611904379261e-12      -7.746055670085e-15 
   93       3.340786588947e-10       9.018716948581e-14      -2.499276398650e-12       3.462397921845e-16       1.207214485711e-11       1.576589112115e-12      -7.703159226479e-15 
   94       3.381139694326e-10       9.227207449532e-14      -2.586380965200e-12       3.537837059274e-16       1.174331915135e-11       1.542305004639e-12      -7.650334284355e-15 
   95       3.421786524830e-10       9.434950370795e-14      -2.673990961712e-12       3.614136399647e-16       1.142552797838e-11       1.509063355792e-12      -7.588633756055e-15 
   96       3.462728293204e-10       9.641759115829e-14      -2.762043414218e-12       3.691300871601e-16       1.111873432613e-11       1.476865645182e-12      -7.519222121165e-15 
   97       3.503964644302e-10       9.847444262166e-14      -2.850474098202e-12       3.769335655405e-16       1.082279954801e-11       1.445703148568e-12      -7.443378424699e-15 
   98       3.545493585190e-10       1.005181360488e-13      -2.939217556758e-12       3.848246188554e-16       1.053747961379e-11       1.415556553346e-12      -7.362499275286e-15 
   99       3.587311415255e-10       1.025467220006e-13      -3.028207118740e-12       3.928038171358e-16       1.026242136043e-11       1.386395574042e-12      -7.278101843347e-15 
  100       3.629412656302e-10       1.045582240826e-13      -3.117374916924e-12       4.008717572531e-16       9.997158742924e-12       1.358178567809e-12      -7.191826859287e-15 
  101       3.671789982662e-10       1.065506393803e-13      -3.206651906159e-12       4.090290634781e-16       9.741109085164e-12       1.330852149912e-12      -7.105441611671e-15 
  102       3.714434151296e-10       1.085219388931e-13      -3.295967881524e-12       4.172763880398e-16       9.493569330773e-12       1.304350809224e-12      -7.020842945412e-15 
  103       3.757333931899e-10       1.104700679696e-13      -3.385251496487e-12       4.256144116848e-16       9.253712293967e-12       1.278596523721e-12      -6.940060259954e-15 
  104       3.800478430161e-10       1.123929976772e-13      -3.474430856731e-12       4.340438249444e-16       9.020774091844e-12       1.253517118880e-12      -6.864819044596e-15 
  105       3.843864565521e-10       1.142888858783e-13      -3.563435353915e-12       4.425652678528e-16       8.794653352100e-12       1.229104995425e-12      -6.795157878415e-15 
  106       3.887490477946e-10       1.161559388252e-13      -3.652194114631e-12       4.511793830899e-16       8.575386336872e-12       1.205365654951e-12      -6.730629326947e-15 
  107       3.931353181907e-10       1.179923631501e-13      -3.740635471034e-12       4.598868348883e-16       8.362961361126e-12       1.182299489042e-12      -6.670720913014e-15 
