# Matter power spectrum P(k) at redshift z=0
# for k=1.04891e-05 to 1061.52 h/Mpc,
# number of wavenumbers equal to 632
#    1:k (h/Mpc)              2:P (Mpc/h)^3        
       1.048912248134e-05       4.749488693535e+01 
       2.342123617093e-05       1.031974243492e+02 
       3.639918314917e-05       1.579944556302e+02 
       4.945816026424e-05       2.124497769128e+02 
       6.263395105970e-05       2.668889550252e+02 
       7.596324737622e-05       3.215588800643e+02 
       8.948398131404e-05       3.766726060064e+02 
       1.032356720038e-04       4.324277625211e+02 
       1.172597916672e-04       4.890160721304e+02 
       1.316001554822e-04       5.466291510087e+02 
       1.463033397739e-04       6.054625896876e+02 
       1.614191329836e-04       6.657191530409e+02 
       1.770010236846e-04       7.276115653914e+02 
       1.931067295144e-04       7.913650497433e+02 
       2.097987702057e-04       8.572198040062e+02 
       2.271450867555e-04       9.254334217815e+02 
       2.452197070231e-04       9.962834262221e+02 
       2.641034554380e-04       1.070069690211e+03 
       2.838847007619e-04       1.147116991205e+03 
       3.046601306268e-04       1.227777450274e+03 
       3.265355344693e-04       1.312432910536e+03 
       3.496265670853e-04       1.401497005860e+03 
       3.740594529483e-04       1.495416924630e+03 
       3.999715764158e-04       1.594674467431e+03 
       4.275118850560e-04       1.699786207113e+03 
       4.568410131631e-04       1.811302404252e+03 
       4.881310115973e-04       1.929804191859e+03 
       5.215645511641e-04       2.055898527579e+03 
       5.573334542803e-04       2.190210668671e+03 
       5.956364099211e-04       2.333373149332e+03 
       6.366757476075e-04       2.486011561489e+03 
       6.806531956702e-04       2.648726574049e+03 
       7.277646335569e-04       2.822072621832e+03 
       7.781939685709e-04       3.006533826291e+03 
       8.321064159307e-04       3.202498640166e+03 
       8.896416170178e-04       3.410234837106e+03 
       9.509071618482e-04       3.629867216295e+03 
       1.015973149655e-03       3.861360436140e+03 
       1.084868392573e-03       4.104508953534e+03 
       1.157578727227e-03       4.358936294440e+03 
       1.234047662262e-03       4.624103510122e+03 
       1.314179300947e-03       4.899326285862e+03 
       1.397843199088e-03       5.183799751926e+03 
       1.484880609418e-03       5.476627416874e+03 
       1.575111462106e-03       5.776852342405e+03 
       1.668341443304e-03       6.083486947310e+03 
       1.764368637020e-03       6.395540280150e+03 
       1.862989351177e-03       6.712041326316e+03 
       1.964002916179e-03       7.032056959579e+03 
       2.067215392459e-03       7.354706345833e+03 
       2.172442235475e-03       7.679169301212e+03 
       2.279510037829e-03       8.004692427750e+03 
       2.388257503385e-03       8.330590785604e+03 
       2.498535815917e-03       8.656246739970e+03 
       2.610208554625e-03       8.981107920954e+03 
       2.723151288806e-03       9.304683623068e+03 
       2.837250960244e-03       9.626539804169e+03 
       2.952405138349e-03       9.946296331185e+03 
       3.068521211928e-03       1.026361779056e+04 
       3.185515563680e-03       1.057821273887e+04 
       3.303312759245e-03       1.088982808012e+04 
       3.421844771621e-03       1.119824369447e+04 
       3.541050253545e-03       1.150327210645e+04 
       3.660873864487e-03       1.180474941105e+04 
       3.781265654724e-03       1.210253753186e+04 
       3.902180506170e-03       1.239652021169e+04 
       4.023577627780e-03       1.268660036101e+04 
       4.145420102296e-03       1.297269549159e+04 
       4.267674480470e-03       1.325474607589e+04 
       4.390310418704e-03       1.353269446384e+04 
       4.513300356016e-03       1.380650524573e+04 
       4.636619226396e-03       1.407614602340e+04 
       4.760244202843e-03       1.434158741412e+04 
       4.884154469661e-03       1.460282240679e+04 
       5.008331019893e-03       1.485984774371e+04 
       5.132756475049e-03       1.511271032279e+04 
       5.257414924618e-03       1.536131812856e+04 
       5.382291783076e-03       1.560571340780e+04 
       5.507373662395e-03       1.584597944003e+04 
       5.632648258264e-03       1.608200586213e+04 
       5.758104248443e-03       1.631395873621e+04 
       5.883731201860e-03       1.654175803214e+04 
       6.009519497230e-03       1.676544097491e+04 
       6.135460250105e-03       1.698501008915e+04 
       6.261545247405e-03       1.720058078851e+04 
       6.387766888598e-03       1.741209970752e+04 
       6.514118132780e-03       1.761965094968e+04 
       6.640592451005e-03       1.782322250735e+04 
       6.767183783298e-03       1.802290369732e+04 
       6.893886499836e-03       1.821869926738e+04 
       7.020695365849e-03       1.841063514079e+04 
       7.147605509849e-03       1.859874879818e+04 
       7.274612394840e-03       1.878309811664e+04 
       7.401711792184e-03       1.896369821093e+04 
       7.528899757870e-03       1.914060355815e+04 
       7.656172610920e-03       1.931383868387e+04 
       7.783526913732e-03       1.948344259698e+04 
       7.910959454158e-03       1.964945856820e+04 
       8.038467229151e-03       1.981192387938e+04 
       8.166047429820e-03       1.997086628194e+04 
       8.293697427766e-03       2.012632773635e+04 
       8.421414762572e-03       2.027836168806e+04 
       8.549197130337e-03       2.042699609260e+04 
       8.677042373159e-03       2.057227131468e+04 
       8.804948469480e-03       2.071421516908e+04 
       8.932913525204e-03       2.085287498375e+04 
       9.060935765544e-03       2.098828861194e+04 
       9.189013527493e-03       2.112048042999e+04 
       9.317145252908e-03       2.124950061963e+04 
       9.445329482116e-03       2.137538187136e+04 
       9.573564848020e-03       2.149815026457e+04 
       9.701850070656e-03       2.161785872867e+04 
       9.830183952156e-03       2.173451949144e+04 
       9.958565372096e-03       2.184818116377e+04 
       1.008699328319e-02       2.195887407992e+04 
       1.021546670728e-02       2.206663796625e+04 
       1.034398473167e-02       2.217149606811e+04 
       1.047254650568e-02       2.227348721903e+04 
       1.060115123744e-02       2.237264837826e+04 
       1.072979819100e-02       2.246900257608e+04 
       1.085848668352e-02       2.256259467354e+04 
       1.098721608277e-02       2.265344990679e+04 
       1.111598580475e-02       2.274159962331e+04 
       1.124479531147e-02       2.282707358124e+04 
       1.137364410894e-02       2.290991538072e+04 
       1.150253174526e-02       2.299014071454e+04 
       1.163145780881e-02       2.306778863362e+04 
       1.176042192668e-02       2.314288678361e+04 
       1.188942376306e-02       2.321546709733e+04 
       1.201846301787e-02       2.328554844528e+04 
       1.214753942544e-02       2.335318266486e+04 
       1.227665275323e-02       2.341836879800e+04 
       1.240580280073e-02       2.348117872424e+04 
       1.253498939839e-02       2.354160057904e+04 
       1.266421240662e-02       2.359967790203e+04 
       1.279347171489e-02       2.365545610463e+04 
       1.292276724087e-02       2.370894127461e+04 
       1.305209892965e-02       2.376017673315e+04 
       1.318146675301e-02       2.380916952681e+04 
       1.331087070875e-02       2.385595982704e+04 
       1.344031082007e-02       2.390058048776e+04 
       1.356978713501e-02       2.394304342308e+04 
       1.369929972589e-02       2.398338387774e+04 
       1.382884868887e-02       2.402162614812e+04 
       1.395843414350e-02       2.405780724379e+04 
       1.408805623231e-02       2.409193335587e+04 
       1.421771512044e-02       2.412404024980e+04 
       1.434741099534e-02       2.415414378292e+04 
       1.447714406648e-02       2.418228950509e+04 
       1.460691456502e-02       2.420849581382e+04 
       1.473672274369e-02       2.423277066658e+04 
       1.486656887649e-02       2.425515206573e+04 
       1.499645325857e-02       2.427567724330e+04 
       1.512637620608e-02       2.429434609480e+04 
       1.525633805601e-02       2.431119263689e+04 
       1.538633916615e-02       2.432624929712e+04 
       1.551637991499e-02       2.433951700770e+04 
       1.564646070166e-02       2.435103608695e+04 
       1.577658194593e-02       2.436083591787e+04 
       1.590674408817e-02       2.436892893065e+04 
       1.603694758941e-02       2.437533183121e+04 
       1.616719293135e-02       2.438008431442e+04 
       1.629748061640e-02       2.438319709881e+04 
       1.642781116781e-02       2.438469312349e+04 
       1.655818512969e-02       2.438460164201e+04 
       1.668860306720e-02       2.438293253673e+04 
       1.681906556661e-02       2.437972599663e+04 
       1.694957323551e-02       2.437498456740e+04 
       1.708012670294e-02       2.436874526991e+04 
       1.721072661957e-02       2.436101630968e+04 
       1.734137365794e-02       2.435183157045e+04 
       1.747206851263e-02       2.434120409753e+04 
       1.760281190053e-02       2.432914910394e+04 
       1.773360456108e-02       2.431569490603e+04 
       1.786444725654e-02       2.430087229744e+04 
       1.799534077225e-02       2.428468306809e+04 
       1.812628591699e-02       2.426715540228e+04 
       1.825728352323e-02       2.424830622607e+04 
       1.838833444752e-02       2.422815101371e+04 
       1.851943957082e-02       2.420671998498e+04 
       1.865059979886e-02       2.418403897764e+04 
       1.878181606252e-02       2.416011258249e+04 
       1.891308931828e-02       2.413496982837e+04 
       1.904442054858e-02       2.410863456892e+04 
       1.917581076229e-02       2.408111577723e+04 
       1.930726099517e-02       2.405238674259e+04 
       1.943877231032e-02       2.402256668079e+04 
       1.957034579867e-02       2.399158064494e+04 
       1.970198257954e-02       2.395954332912e+04 
       1.983368380108e-02       2.392636224661e+04 
       1.996545064090e-02       2.389215980311e+04 
       2.009728430659e-02       2.385685310683e+04 
       2.022918603633e-02       2.382055316135e+04 
       2.036115709947e-02       2.378322551779e+04 
       2.049319879718e-02       2.374487965553e+04 
       2.062531246309e-02       2.370555463144e+04 
       2.075749946395e-02       2.366527810744e+04 
       2.088976120034e-02       2.362403847728e+04 
       2.102209910736e-02       2.358188828026e+04 
       2.115451465541e-02       2.353880624986e+04 
       2.128700935089e-02       2.349484003496e+04 
       2.141958473704e-02       2.344995130023e+04 
       2.155224239470e-02       2.340425381035e+04 
       2.168498394320e-02       2.335769002545e+04 
       2.181781104118e-02       2.331027614167e+04 
       2.195072538751e-02       2.326208539898e+04 
       2.208372872216e-02       2.321307077915e+04 
       2.221682282720e-02       2.316329454692e+04 
       2.235000952774e-02       2.311273220902e+04 
       2.248329069297e-02       2.306142327254e+04 
       2.261666823715e-02       2.300935184085e+04 
       2.275014412072e-02       2.295664974732e+04 
       2.288372035136e-02       2.290310113915e+04 
       2.301739898520e-02       2.284892340734e+04 
       2.315118212791e-02       2.279405058145e+04 
       2.328507193598e-02       2.273852184188e+04 
       2.341907061790e-02       2.268236689284e+04 
       2.355318043552e-02       2.262558073797e+04 
       2.368740370533e-02       2.256814543952e+04 
       2.382174279983e-02       2.251009168262e+04 
       2.395620014897e-02       2.245152304533e+04 
       2.409077824159e-02       2.239230711938e+04 
       2.422547962694e-02       2.233253468318e+04 
       2.436030691621e-02       2.227221777615e+04 
       2.449526278416e-02       2.221136067959e+04 
       2.463034997074e-02       2.215000798086e+04 
       2.476557128285e-02       2.208813465703e+04 
       2.490092959607e-02       2.202574271345e+04 
       2.503642785648e-02       2.196285072213e+04 
       2.517206908255e-02       2.189958358327e+04 
       2.530785636712e-02       2.183572847380e+04 
       2.544379287934e-02       2.177150960785e+04 
       2.557988186680e-02       2.170679138423e+04 
       2.571612665768e-02       2.164169729150e+04 
       2.585253066293e-02       2.157613582394e+04 
       2.598909737860e-02       2.151020227508e+04 
       2.612583038819e-02       2.144389683958e+04 
       2.626273336512e-02       2.137721304605e+04 
       2.639981007528e-02       2.131016036552e+04 
       2.653706437964e-02       2.124271872235e+04 
       2.667450023696e-02       2.117498089382e+04 
       2.681212170664e-02       2.110685423714e+04 
       2.694993295162e-02       2.103845393918e+04 
       2.708793824140e-02       2.096970810891e+04 
       2.722614195515e-02       2.090072187945e+04 
       2.736454858500e-02       2.083137101384e+04 
       2.750316273937e-02       2.076177296044e+04 
       2.764198914645e-02       2.069191438504e+04 
       2.778103265782e-02       2.062178191459e+04 
       2.792029825222e-02       2.055138976447e+04 
       2.805979103939e-02       2.048075954725e+04 
       2.819951626415e-02       2.040988100758e+04 
       2.833947931057e-02       2.033880920948e+04 
       2.847968570632e-02       2.026752676779e+04 
       2.862014112720e-02       2.019602942072e+04 
       2.876085140179e-02       2.012436660191e+04 
       2.890182251640e-02       2.005248246772e+04 
       2.904306062006e-02       1.998042702553e+04 
       2.918457202986e-02       1.990816197125e+04 
       2.932636323638e-02       1.983575903599e+04 
       2.946844090943e-02       1.976320623737e+04 
       2.961081190399e-02       1.969051614027e+04 
       2.975348326635e-02       1.961775974789e+04 
       2.989646224059e-02       1.954470705419e+04 
       3.003975627528e-02       1.947156003718e+04 
       3.018337303047e-02       1.939845047830e+04 
       3.032732038496e-02       1.932514718016e+04 
       3.047160644391e-02       1.925172772985e+04 
       3.061623954680e-02       1.917822529809e+04 
       3.076122827566e-02       1.910462280193e+04 
       3.090658146372e-02       1.903100371416e+04 
       3.105230820447e-02       1.895721159357e+04 
       3.119841786102e-02       1.888334695226e+04 
       3.134492007604e-02       1.880948044385e+04 
       3.149182478197e-02       1.873558737179e+04 
       3.163914221187e-02       1.866165666566e+04 
       3.178688291066e-02       1.858753096145e+04 
       3.193505774696e-02       1.851346329008e+04 
       3.208367792542e-02       1.843931177241e+04 
       3.223275499970e-02       1.836523808456e+04 
       3.238230088603e-02       1.829112689105e+04 
       3.253232787749e-02       1.821690701298e+04 
       3.268284865895e-02       1.814273326177e+04 
       3.283387632271e-02       1.806850610841e+04 
       3.298542438504e-02       1.799434680692e+04 
       3.313750680346e-02       1.792014527545e+04 
       3.329013799493e-02       1.784596927331e+04 
       3.344333285500e-02       1.777177600652e+04 
       3.359710677794e-02       1.769758728308e+04 
       3.375147567797e-02       1.762348303948e+04 
       3.390645601156e-02       1.754933460012e+04 
       3.406206480097e-02       1.747524022445e+04 
       3.421831965910e-02       1.740110944673e+04 
       3.437523881564e-02       1.732711481510e+04 
       3.453284114477e-02       1.725305611477e+04 
       3.469114619429e-02       1.717909314811e+04 
       3.485017421657e-02       1.710514467829e+04 
       3.500994620114e-02       1.703123193874e+04 
       3.517048390926e-02       1.695738875937e+04 
       3.533180991049e-02       1.688357569267e+04 
       3.549394762149e-02       1.680981158828e+04 
       3.565692134707e-02       1.673607470654e+04 
       3.582075632386e-02       1.666242952250e+04 
       3.598547876654e-02       1.658879106065e+04 
       3.615111591714e-02       1.651520181601e+04 
       3.631769609726e-02       1.644171371676e+04 
       3.648524876379e-02       1.636825029818e+04 
       3.665380456817e-02       1.629489223909e+04 
       3.682339541958e-02       1.622155956385e+04 
       3.699405455229e-02       1.614826170542e+04 
       3.716581659761e-02       1.607501986835e+04 
       3.733871766070e-02       1.600186504955e+04 
       3.751279540274e-02       1.592874220893e+04 
       3.768808912881e-02       1.585573000815e+04 
       3.786463988213e-02       1.578271197153e+04 
       3.804249054494e-02       1.570977061135e+04 
       3.822168594690e-02       1.563685545039e+04 
       3.840227298143e-02       1.556404431701e+04 
       3.858430073083e-02       1.549126986867e+04 
       3.876782060101e-02       1.541851801700e+04 
       3.895288646654e-02       1.534582988730e+04 
       3.913955482722e-02       1.527318588068e+04 
       3.932788497703e-02       1.520055992693e+04 
       3.951793918691e-02       1.512803113796e+04 
       3.970978290242e-02       1.505548372833e+04 
       3.990348495808e-02       1.498297636035e+04 
       4.009911780981e-02       1.491050358149e+04 
       4.029675778751e-02       1.483807884460e+04 
       4.049648536975e-02       1.476562376655e+04 
       4.069838548304e-02       1.469322312335e+04 
       4.090254782820e-02       1.462079300929e+04 
       4.110906723693e-02       1.454839570300e+04 
       4.131804406185e-02       1.447601723645e+04 
       4.152958460385e-02       1.440357518310e+04 
       4.174380158113e-02       1.433119782703e+04 
       4.196081464465e-02       1.425876428324e+04 
       4.218075094579e-02       1.418623419249e+04 
       4.240374576241e-02       1.411370733925e+04 
       4.262994319070e-02       1.404110646342e+04 
       4.285949691105e-02       1.396847941913e+04 
       4.309257103765e-02       1.389581079228e+04 
       4.332934106274e-02       1.382300149019e+04 
       4.356999490831e-02       1.375016492951e+04 
       4.381473410013e-02       1.367720291214e+04 
       4.406377508099e-02       1.360401174702e+04 
       4.431735068342e-02       1.353087780129e+04 
       4.457571178506e-02       1.345747594351e+04 
       4.483912917408e-02       1.338392827105e+04 
       4.510789565678e-02       1.331019635611e+04 
       4.538232844536e-02       1.323623353434e+04 
       4.566277187072e-02       1.316203498389e+04 
       4.594960047357e-02       1.308761735380e+04 
       4.624322253753e-02       1.301295195116e+04 
       4.654408414014e-02       1.293795388858e+04 
       4.685267381333e-02       1.286260868419e+04 
       4.716952792337e-02       1.278693440213e+04 
       4.749523690383e-02       1.271081984240e+04 
       4.783045250388e-02       1.263430489436e+04 
       4.817589624994e-02       1.255730982484e+04 
       4.853236936384e-02       1.247977859277e+04 
       4.890076443678e-02       1.240165378739e+04 
       4.928207922958e-02       1.232287624075e+04 
       4.967743305934e-02       1.224340530946e+04 
       5.008808634671e-02       1.216319786750e+04 
       5.051546404303e-02       1.208210181141e+04 
       5.096118384125e-02       1.199998807178e+04 
       5.142709031025e-02       1.191687105963e+04 
       5.191529639189e-02       1.183250056501e+04 
       5.242823407989e-02       1.174679386999e+04 
       5.296871657604e-02       1.165952568999e+04 
       5.354001480678e-02       1.157049219834e+04 
       5.414595188642e-02       1.147944513329e+04 
       5.479101990824e-02       1.138599745021e+04 
       5.548052424523e-02       1.128983594000e+04 
       5.622076112758e-02       1.119035772217e+04 
       5.701923413970e-02       1.108697909569e+04 
       5.788491342193e-02       1.097881212873e+04 
       5.882853575605e-02       1.086471704134e+04 
       5.986293060727e-02       1.074326324647e+04 
       6.100333009568e-02       1.061238829537e+04 
       6.226756986569e-02       1.046948517025e+04 
