# dimensionless total lensed [l(l+1)/2pi] C_l's
# for l=2 to 2500, i.e. number of multipoles equal to 2499
#
# -> if you prefer output in CAMB/HealPix/LensPix units/order, set 'format' to 'camb' in input file
# -> if you don't want to see such a header, set 'headers' to 'no' in input file
# -> for CMB lensing (phi), these are C_l^phi-phi for the lensing potential.
#    Remember the conversion factors:
#    C_l^dd (deflection) = l(l+1) C_l^phi-phi
#    C_l^gg (shear/convergence) = 1/4 (l(l+1))^2 C_l^phi-phi
#
# 1:l     2:TT                     3:EE                     4:TE                     5:BB                     6:phiphi                 7:TPhi                   8:Ephi               
    2       1.422961329918e-10       4.161690203028e-15       3.794103592142e-13       2.266454717736e-19       8.228416391919e-09       4.314488453138e-10      -1.840047212883e-12 
    3       1.347231259777e-10       5.343538206723e-15       4.237241015977e-13       4.533847151518e-19       5.062563471216e-09       3.069464090084e-10      -1.394937093836e-12 
    4       1.273642865091e-10       4.632094504610e-15       3.945158330708e-13       7.558476990897e-19       3.517605303328e-09       2.326922002674e-10      -9.149106492310e-13 
    5       1.217329074221e-10       3.097383318028e-15       3.342165959601e-13       1.134154290403e-18       2.624630526016e-09       1.838319712950e-10      -5.103198697617e-13 
    6       1.177675886978e-10       1.735246446006e-15       2.672136829053e-13       1.588450005642e-18       2.049778647564e-09       1.495301110554e-10      -2.117252387519e-13 
    7       1.150873763206e-10       9.376887311409e-16       2.077130742264e-13       2.118903326315e-18       1.653544520429e-09       1.243407423301e-10      -2.077160759207e-14 
    8       1.134124089140e-10       6.038526921834e-16       1.619867003371e-13       2.725702661398e-18       1.366638788503e-09       1.052388155348e-10       7.719369319086e-14 
    9       1.124923678653e-10       4.847164234873e-16       1.314038242828e-13       3.409053046621e-18       1.150811646275e-09       9.041569696197e-11       1.052113850605e-13 
   10       1.121007898900e-10       4.144030634136e-16       1.145182867729e-13       4.169172676383e-18       9.835360026255e-10       7.867088695306e-11       8.890013296647e-14 
   11       1.121729157036e-10       3.498833402767e-16       1.084136029578e-13       5.006289367132e-18       8.285452590740e-10       6.949712879493e-11       5.221875210174e-14 
   12       1.125605024825e-10       3.061766966360e-16       1.097342055958e-13       5.920637050616e-18       7.238384854504e-10       6.141316978868e-11       1.272584683926e-14 
   13       1.132105236794e-10       2.945251984974e-16       1.154925194822e-13       6.912452391625e-18       6.378941314325e-10       5.486437550801e-11      -1.755107030808e-14 
   14       1.140696645674e-10       3.073210492327e-16       1.234442347447e-13       7.981971617817e-18       5.663978737784e-10       4.914341588578e-11      -3.426741837216e-14 
   15       1.151271752496e-10       3.328090394245e-16       1.321911444809e-13       9.129427639281e-18       5.062238188518e-10       4.434485002598e-11      -3.748931504664e-14 
   16       1.163106322299e-10       3.682798480558e-16       1.409752824058e-13       1.035504752308e-17       4.550681739763e-10       4.021609654919e-11      -3.107597984756e-14 
   17       1.176395572457e-10       4.192319168530e-16       1.495831864217e-13       1.165905037346e-17       4.111906858447e-10       3.661641174303e-11      -2.016407096911e-14 
   18       1.190526598773e-10       4.911559849897e-16       1.583085917747e-13       1.304164547671e-17       3.731118368599e-10       3.347347306083e-11      -9.646045164727e-15 
   19       1.205608871509e-10       5.844299053601e-16       1.673851010539e-13       1.450303195960e-17       3.402268923486e-10       3.074459593853e-11      -2.158153837411e-15 
   20       1.221530670731e-10       6.971005242206e-16       1.769688528313e-13       1.604339607481e-17       3.112665960567e-10       2.832649267866e-11       5.408669418086e-16 
   21       1.238320549405e-10       8.285377521608e-16       1.870577938302e-13       1.766291361269e-17       2.857753812316e-10       2.617442923732e-11      -1.023500808909e-15 
   22       1.255735268221e-10       9.782558238818e-16       1.975149591147e-13       1.936174692679e-17       2.631429864843e-10       2.423071754601e-11      -5.143201965276e-15 
   23       1.273803453045e-10       1.146485583094e-15       2.079902079421e-13       2.114004874711e-17       2.430578588600e-10       2.248513072430e-11      -1.008545880441e-14 
   24       1.292427655864e-10       1.333485268581e-15       2.180240345299e-13       2.299795915359e-17       2.250552325732e-10       2.092115795013e-11      -1.398869188436e-14 
   25       1.311645532318e-10       1.539286622220e-15       2.273311711409e-13       2.493561103414e-17       2.089230243305e-10       1.952283393161e-11      -1.599984284117e-14 
   26       1.331369248182e-10       1.764083927842e-15       2.356807738004e-13       2.695312643510e-17       1.943689079165e-10       1.825984685057e-11      -1.575353067000e-14 
   27       1.351525439431e-10       2.009871834748e-15       2.429509758550e-13       2.905062180751e-17       1.812180169049e-10       1.711269243437e-11      -1.384638437761e-14 
   28       1.371958810465e-10       2.279196259032e-15       2.490850776280e-13       3.122820551408e-17       1.692433486382e-10       1.605837368411e-11      -1.126865254142e-14 
   29       1.392761892071e-10       2.573542776593e-15       2.541486270405e-13       3.348598638947e-17       1.583836147661e-10       1.509528208074e-11      -8.678494161679e-15 
   30       1.413991880310e-10       2.894064572569e-15       2.582850431964e-13       3.582406659925e-17       1.485220754458e-10       1.422025078071e-11      -6.749564446647e-15 
   31       1.435598775440e-10       3.241852947598e-15       2.616428350035e-13       3.824254161457e-17       1.394574043390e-10       1.342179680572e-11      -6.107280153945e-15 
   32       1.457610020312e-10       3.617831009281e-15       2.641791730764e-13       4.074151101277e-17       1.311426847539e-10       1.269133073378e-11      -6.583345741364e-15 
   33       1.479987698197e-10       4.022806794952e-15       2.657819717224e-13       4.332107151580e-17       1.235190094807e-10       1.201446480597e-11      -7.669292373836e-15 
   34       1.502624453549e-10       4.457535491431e-15       2.663214217083e-13       4.598131569451e-17       1.164795592061e-10       1.137373593086e-11      -8.794710387563e-15 
   35       1.525546598919e-10       4.922870124865e-15       2.656590693346e-13       4.872233731853e-17       1.099882296254e-10       1.077129211921e-11      -9.668692033898e-15 
   36       1.548764598351e-10       5.419654622860e-15       2.636392081841e-13       5.154422799258e-17       1.039928705049e-10       1.021343453744e-11      -1.004901679928e-14 
   37       1.572244201316e-10       5.948686218647e-15       2.601189536755e-13       5.444707535338e-17       9.841536973314e-11       9.703631939147e-12      -9.737948378543e-15 
   38       1.596021035571e-10       6.510736923414e-15       2.550848862694e-13       5.743096135539e-17       9.324128013416e-11       9.239915959601e-12      -8.885795809903e-15 
   39       1.620112188319e-10       7.106532689869e-15       2.485755616713e-13       6.049596354957e-17       8.845415684257e-11       8.816127730654e-12      -7.791313774430e-15 
   40       1.644477989604e-10       7.736743038227e-15       2.406520276826e-13       6.364215562211e-17       8.400829580154e-11       8.422212112564e-12      -6.826528234642e-15 
   41       1.669053615158e-10       8.401999521859e-15       2.313738077813e-13       6.686960461042e-17       7.984464853364e-11       8.047253604486e-12      -6.339271463040e-15 
   42       1.693870434719e-10       9.102967050354e-15       2.207141852124e-13       7.017836131482e-17       7.595093213177e-11       7.690528953425e-12      -6.311246920763e-15 
   43       1.718964247553e-10       9.840289695486e-15       2.086196262492e-13       7.356846686821e-17       7.231679170848e-11       7.353523025873e-12      -6.596621649598e-15 
   44       1.744337940872e-10       1.061456855066e-14       1.950323944329e-13       7.703995517955e-17       6.891576344523e-11       7.036806117574e-12      -7.012368543944e-15 
   45       1.769975413142e-10       1.142635360658e-14       1.798958457714e-13       8.059284926284e-17       6.571472172396e-11       6.740158214301e-12      -7.379185921227e-15 
   46       1.795896132022e-10       1.227612145293e-14       1.631731190304e-13       8.422714923825e-17       6.270861010287e-11       6.463184508819e-12      -7.664256294305e-15 
   47       1.822111239142e-10       1.316428732195e-14       1.448333712192e-13       8.794284051080e-17       5.989391237943e-11       6.204740659294e-12      -7.877260202886e-15 
   48       1.848605455722e-10       1.409120813226e-14       1.248465182472e-13       9.173989666137e-17       5.725817754627e-11       5.962669969185e-12      -8.031052507894e-15 
   49       1.875334755349e-10       1.505718003287e-14       1.031831731834e-13       9.561827910613e-17       5.477935545931e-11       5.733731185831e-12      -8.141854635416e-15 
   50       1.902249435552e-10       1.606243580999e-14       7.981421542265e-14       9.957793666925e-17       5.243243426880e-11       5.514526302706e-12      -8.228416609791e-15 
   51       1.929376114570e-10       1.710714197515e-14       5.470950355558e-14       1.036188049539e-16       5.021301794035e-11       5.304748370171e-12      -8.308788997510e-15 
   52       1.956753968938e-10       1.819139664141e-14       2.783870640005e-14       1.077408062118e-16       4.811900024708e-11       5.104690461667e-12      -8.403007049424e-15 
   53       1.984410174864e-10       1.931522718754e-14      -8.284356736842e-16       1.119438490791e-16       4.614350924767e-11       4.914298174977e-12      -8.534184682201e-15 
   54       2.012358776243e-10       2.047858779564e-14      -3.132218985230e-14       1.162278282315e-16       4.427458656684e-11       4.733144489810e-12      -8.728658241761e-15 
   55       2.040605487989e-10       2.168139490531e-14      -6.366816314665e-14       1.205926321158e-16       4.249883336829e-11       4.560644897421e-12      -9.007191418930e-15 
   56       2.069166096618e-10       2.292364953131e-14      -9.787176007534e-14       1.250381691820e-16       4.081414365940e-11       4.396822971638e-12      -9.355702077462e-15 
   57       2.098050648009e-10       2.420534101912e-14      -1.339300025023e-13       1.295643475643e-16       3.921957244740e-11       4.241690943194e-12      -9.747515154608e-15 
   58       2.127257031460e-10       2.552641082689e-14      -1.718358346683e-13       1.341710675467e-16       3.771148363333e-11       4.095010652791e-12      -1.015146432086e-14 
   59       2.156770078953e-10       2.688675154030e-14      -2.115780173587e-13       1.388582215335e-16       3.628338383892e-11       3.956277769927e-12      -1.053168747659e-14 
   60       2.186560664422e-10       2.828620588737e-14      -2.531410220705e-13       1.436256940186e-16       3.492575623365e-11       3.824706011729e-12      -1.084742224868e-14 
   61       2.216598702622e-10       2.972450154372e-14      -2.965075917153e-13       1.484733767081e-16       3.362870181740e-11       3.699445872500e-12      -1.106240224951e-14 
   62       2.246897593025e-10       3.120104067659e-14      -3.416673338117e-13       1.534012179197e-16       3.239093199656e-11       3.580333885695e-12      -1.117597309328e-14 
   63       2.277478198870e-10       3.271506119852e-14      -3.886098771037e-13       1.584091842688e-16       3.121250879726e-11       3.467284303257e-12      -1.119862959421e-14 
   64       2.308355377234e-10       3.426569384598e-14      -4.373223544239e-13       1.634972469367e-16       3.009213995649e-11       3.360061250291e-12      -1.114312945271e-14 
   65       2.339537519329e-10       3.585195915684e-14      -4.877893814683e-13       1.686653821220e-16       2.902710182761e-11       3.258270384741e-12      -1.102459337698e-14 
   66       2.371026090790e-10       3.747276444795e-14      -5.399930355707e-13       1.739135714907e-16       2.801316228565e-11       3.161350557073e-12      -1.086060520454e-14 
   67       2.402815171962e-10       3.912690079262e-14      -5.939128344774e-13       1.792418026276e-16       2.704450363281e-11       3.068565469948e-12      -1.067131202381e-14 
   68       2.434897357478e-10       4.081315900380e-14      -6.495268125076e-13       1.846500777312e-16       2.611527552211e-11       2.979193016701e-12      -1.047558275683e-14 
   69       2.467283870700e-10       4.253071162982e-14      -7.068150496947e-13       1.901384407384e-16       2.522479145127e-11       2.893156490063e-12      -1.027835624328e-14 
   70       2.499987717877e-10       4.427880328696e-14      -7.657568228971e-13       1.957069565308e-16       2.437325155716e-11       2.810506877681e-12      -1.008089762911e-14 
   71       2.533017397735e-10       4.605663852312e-14      -8.263295784020e-13       2.013557038272e-16       2.356017099038e-11       2.731233274101e-12      -9.884512405422e-15 
   72       2.566376604402e-10       4.786338183900e-14      -8.885089387659e-13       2.070847758444e-16       2.278434450913e-11       2.655259596171e-12      -9.690545723463e-15 
   73       2.600063930348e-10       4.969815770923e-14      -9.522687096553e-13       2.128942809594e-16       2.204381107306e-11       2.582441298447e-12      -9.500381709546e-15 
   74       2.634072569309e-10       5.156005060353e-14      -1.017580886688e-12       2.187843433712e-16       2.133581843714e-11       2.512562088590e-12      -9.315442780009e-15 
   75       2.668390019222e-10       5.344810500785e-14      -1.084415662272e-12       2.247551037618e-16       2.065678774552e-11       2.445330642773e-12      -9.137188956154e-15 
   76       2.703004029849e-10       5.536127107411e-14      -1.152740881530e-12       2.308067131188e-16       2.000320146264e-11       2.380457417626e-12      -8.967033181109e-15 
   77       2.737922354455e-10       5.729823008050e-14      -1.222520280398e-12       2.369393114365e-16       1.937453236572e-11       2.317908517708e-12      -8.806070956676e-15 
   78       2.773156076964e-10       5.925753703358e-14      -1.293714937171e-12       2.431530463150e-16       1.877078682385e-11       2.257692369625e-12      -8.655299930798e-15 
   79       2.808713520517e-10       6.123767113999e-14      -1.366283790532e-12       2.494480799681e-16       1.819161263844e-11       2.199782116816e-12      -8.515697153319e-15 
   80       2.844600078450e-10       6.323703471269e-14      -1.440183635098e-12       2.558245897447e-16       1.763628257079e-11       2.144113977405e-12      -8.388216668485e-15 
   81       2.880818045283e-10       6.525395207719e-14      -1.515369116964e-12       2.622827686506e-16       1.710367786976e-11       2.090585602042e-12      -8.273787107442e-15 
   82       2.917366447701e-10       6.728666847772e-14      -1.591792729245e-12       2.688228258696e-16       1.659227179941e-11       2.039054431755e-12      -8.173309280735e-15 
   83       2.954240875538e-10       6.933334898350e-14      -1.669404807619e-12       2.754449872852e-16       1.610011316660e-11       1.989336055794e-12      -8.087653770806e-15 
   84       2.991436288922e-10       7.139214448357e-14      -1.748154237828e-12       2.821494922828e-16       1.562530025391e-11       1.941250356702e-12      -8.017242704993e-15 
   85       3.028956344629e-10       7.346140463773e-14      -1.827990722699e-12       2.889365824073e-16       1.516752897343e-11       1.894772332158e-12      -7.960720685813e-15 
   86       3.066805313149e-10       7.553949838710e-14      -1.908862884522e-12       2.958065117723e-16       1.472677235610e-11       1.849903381646e-12      -7.916058090607e-15 
   87       3.104985122743e-10       7.762475003755e-14      -1.990717593911e-12       3.027595510645e-16       1.430280485672e-11       1.806624915651e-12      -7.880938043477e-15 
   88       3.143495240453e-10       7.971543929352e-14      -2.073499977310e-12       3.097959880020e-16       1.389519412374e-11       1.764897516653e-12      -7.852747019225e-15 
   89       3.182332553100e-10       8.180980129172e-14      -2.157153424506e-12       3.169161277936e-16       1.350329276895e-11       1.724660100121e-12      -7.828565447279e-15 
   90       3.221491248289e-10       8.390602663491e-14      -2.241619596133e-12       3.241202935974e-16       1.312623013726e-11       1.685829075504e-12      -7.805158315640e-15 
   91       3.260962695415e-10       8.600226142566e-14      -2.326838431189e-12       3.314088269802e-16       1.276290407642e-11       1.648297507229e-12      -7.778965774811e-15 
   92       3.300735326660e-10       8.809660730014e-14      -2.412748154538e-12       3.387820883760e-16       1.241197270677e-11       1.611934275691e-12      -7.746093741733e-15 
   93       3.340798096459e-10       9.018715067296e-14      -2.499286061036e-12       3.462404648304e-16       1.207217263912e-11       1.576616259540e-12      -7.703207561489e-15 
   94       3.381151713521e-10       9.227205543010e-14      -2.586390986489e-12       3.537843935698e-16       1.174334625194e-11       1.542332241630e-12      -7.650387149313e-15 
   95       3.421798885950e-10       9.434948430427e-14      -2.674001223942e-12       3.614143428419e-16       1.142555441870e-11       1.509093152006e-12      -7.588685887848e-15 
   96       3.462740824367e-10       9.641757133491e-14      -2.762053798101e-12       3.691308054976e-16       1.111876012733e-11       1.476900058494e-12      -7.519268790821e-15 
   97       3.503977172036e-10       9.847442230292e-14      -2.850484483506e-12       3.769342995502e-16       1.082282473106e-11       1.445743780972e-12      -7.443415503113e-15 
   98       3.545505934987e-10       1.005181151653e-13      -2.939227822699e-12       3.848253687341e-16       1.053750419924e-11       1.415604505642e-12      -7.362523300816e-15 
   99       3.587323412141e-10       1.025467004902e-13      -3.028217144396e-12       3.928045830636e-16       1.026244536820e-11       1.386451399299e-12      -7.278110091294e-15 
  100       3.629424125433e-10       1.045582018911e-13      -3.117384581654e-12       4.008725393922e-16       9.997182192089e-12       1.358242223606e-12      -7.191817413248e-15 
  101       3.671800749936e-10       1.065506164620e-13      -3.206661090042e-12       4.090298619713e-16       9.741131993702e-12       1.330922949362e-12      -7.105413436774e-15 
  102       3.714444043986e-10       1.085219152122e-13      -3.295976465811e-12       4.172772030090e-16       9.493591715345e-12       1.304427370778e-12      -7.020795963425e-15 
  103       3.757342779305e-10       1.104700435007e-13      -3.385259364064e-12       4.256152432294e-16       9.253734169663e-12       1.278676719742e-12      -6.939995426276e-15 
  104       3.800486068246e-10       1.123929724092e-13      -3.474437894873e-12       4.340446731453e-16       9.020795472302e-12       1.253598211612e-12      -6.864738224929e-15 
  105       3.843870854065e-10       1.142888598288e-13      -3.563441464220e-12       4.425661327921e-16       8.794674250800e-12       1.229184366554e-12      -6.795063089649e-15 
  106       3.887495306919e-10       1.161559120454e-13      -3.652199216769e-12       4.511802648574e-16       8.575406767398e-12       1.205441019846e-12      -6.730522531049e-15 
  107       3.931356474086e-10       1.179923357272e-13      -3.740639504354e-12       4.598877335820e-16       8.362981337070e-12       1.182368930410e-12      -6.670604005095e-15 
