# dimensionless total [l(l+1)/2pi] C_l's
# for l=2 to 3000, i.e. number of multipoles equal to 2999
#
# -> if you prefer output in CAMB/HealPix/LensPix units/order, set 'format' to 'camb' in input file
# -> if you don't want to see such a header, set 'headers' to 'no' in input file
# -> for CMB lensing (phi), these are C_l^phi-phi for the lensing potential.
#    Remember the conversion factors:
#    C_l^dd (deflection) = l(l+1) C_l^phi-phi
#    C_l^gg (shear/convergence) = 1/4 (l(l+1))^2 C_l^phi-phi
#
# 1:l     2:TT                     3:EE                     4:TE                     5:BB                     6:phiphi                 7:TPhi                   8:Ephi               
    2       1.422956707217e-10       4.161463557513e-15       3.794103632107e-13       0.000000000000e+00       8.228416391919e-09       4.314488453138e-10      -1.840047212883e-12 
    3       1.347222035805e-10       5.343084821579e-15       4.237241194100e-13       0.000000000000e+00       5.062563471216e-09       3.069464090084e-10      -1.394937093836e-12 
    4       1.273627538850e-10       4.631338654803e-15       3.945158842597e-13       0.000000000000e+00       3.517605303328e-09       2.326922002674e-10      -9.149106492310e-13 
    5       1.217306171709e-10       3.096249156524e-15       3.342167125940e-13       0.000000000000e+00       2.624630526016e-09       1.838319712950e-10      -5.103198697617e-13 
    6       1.177643966621e-10       1.733657976340e-15       2.672139122927e-13       0.000000000000e+00       2.049778647564e-09       1.495301110554e-10      -2.117252387519e-13 
    7       1.150831420490e-10       9.355697821162e-16       2.077134814095e-13       0.000000000000e+00       1.653544520429e-09       1.243407423301e-10      -2.077160759207e-14 
    8       1.134069960337e-10       6.011268951577e-16       1.619873703119e-13       0.000000000000e+00       1.366638788503e-09       1.052388155348e-10       7.719369319086e-14 
    9       1.124856443580e-10       4.813071927609e-16       1.314048639239e-13       0.000000000000e+00       1.150811646275e-09       9.041569696197e-11       1.052113850605e-13 
   10       1.120926282682e-10       4.102335802092e-16       1.145198264480e-13       0.000000000000e+00       9.835360026255e-10       7.867088695306e-11       8.890013296647e-14 
   11       1.121631930871e-10       3.448765408083e-16       1.084157978260e-13       0.000000000000e+00       8.285452590740e-10       6.949712879493e-11       5.221875210174e-14 
   12       1.125491005791e-10       3.002552647361e-16       1.097372365914e-13       0.000000000000e+00       7.238384854504e-10       6.141316978868e-11       1.272584683926e-14 
   13       1.131973286760e-10       2.876115632304e-16       1.154965939947e-13       0.000000000000e+00       6.378941314325e-10       5.486437550801e-11      -1.755107030808e-14 
   14       1.140545669424e-10       2.993373878626e-16       1.234495870099e-13       0.000000000000e+00       5.663978737784e-10       4.914341588578e-11      -3.426741837216e-14 
   15       1.151100695171e-10       3.236772860201e-16       1.321980357050e-13       0.000000000000e+00       5.062238188518e-10       4.434485002598e-11      -3.748931504664e-14 
   16       1.162914166309e-10       3.579217079172e-16       1.409840006466e-13       0.000000000000e+00       4.550681739763e-10       4.021609654919e-11      -3.107597984756e-14 
   17       1.176181334013e-10       4.075688868250e-16       1.495940462538e-13       0.000000000000e+00       4.111906858447e-10       3.661641174303e-11      -2.016407096911e-14 
   18       1.190289324133e-10       4.781093794711e-16       1.583219337540e-13       0.000000000000e+00       3.731118368599e-10       3.347347306083e-11      -9.646045164727e-15 
   19       1.205347633525e-10       5.699208885540e-16       1.674012910744e-13       0.000000000000e+00       3.402268923486e-10       3.074459593853e-11      -2.158153837411e-15 
   20       1.221244564718e-10       6.810501464358e-16       1.769882812173e-13       0.000000000000e+00       3.112665960567e-10       2.832649267866e-11       5.408669418086e-16 
   21       1.238008690341e-10       8.108669919822e-16       1.870808744705e-13       0.000000000000e+00       2.857753812316e-10       2.617442923732e-11      -1.023500808909e-15 
   22       1.255396787163e-10       9.588856343198e-16       1.975421283102e-13       0.000000000000e+00       2.631429864843e-10       2.423071754601e-11      -5.143201965276e-15 
   23       1.273437495285e-10       1.125336940499e-15       2.080219233292e-13       0.000000000000e+00       2.430578588600e-10       2.248513072430e-11      -1.008545880441e-14 
   24       1.292033378294e-10       1.310479225770e-15       2.180607737077e-13       0.000000000000e+00       2.250552325732e-10       2.092115795013e-11      -1.398869188436e-14 
   25       1.311222102994e-10       1.514344360297e-15       2.273734303765e-13       0.000000000000e+00       2.089230243305e-10       1.952283393161e-11      -1.599984284117e-14 
   26       1.330915844910e-10       1.737126813547e-15       2.357290664271e-13       0.000000000000e+00       1.943689079165e-10       1.825984685057e-11      -1.575353067000e-14 
   27       1.351041250383e-10       1.980821474181e-15       2.430058306759e-13       0.000000000000e+00       1.812180169049e-10       1.711269243437e-11      -1.384638437761e-14 
   28       1.371443034167e-10       2.247974555105e-15       2.491470370235e-13       0.000000000000e+00       1.692433486382e-10       1.605837368411e-11      -1.126865254142e-14 
   29       1.392213740202e-10       2.540071971775e-15       2.542182449556e-13       0.000000000000e+00       1.583836147661e-10       1.509528208074e-11      -8.678494161679e-15 
   30       1.413410578620e-10       2.858267307300e-15       2.583628828894e-13       0.000000000000e+00       1.485220754458e-10       1.422025078071e-11      -6.749564446647e-15 
   31       1.434983564759e-10       3.203652317989e-15       2.617294665098e-13       0.000000000000e+00       1.394574043390e-10       1.342179680572e-11      -6.107280153945e-15 
   32       1.456960160443e-10       3.577150595950e-15       2.642751701912e-13       0.000000000000e+00       1.311426847539e-10       1.269133073378e-11      -6.583345741364e-15 
   33       1.479302470371e-10       3.979570713849e-15       2.658879089956e-13       0.000000000000e+00       1.235190094807e-10       1.201446480597e-11      -7.669292373836e-15 
   34       1.501903162541e-10       4.411668446293e-15       2.664378711202e-13       0.000000000000e+00       1.164795592061e-10       1.137373593086e-11      -8.794710387563e-15 
   35       1.524788575751e-10       4.874297432021e-15       2.657865960386e-13       0.000000000000e+00       1.099882296254e-10       1.077129211921e-11      -9.668692033898e-15 
   36       1.547969203027e-10       5.368302256565e-15       2.637783665326e-13       0.000000000000e+00       1.039928705049e-10       1.021343453744e-11      -1.004901679928e-14 
   37       1.571410824856e-10       5.894480859601e-15       2.602702828987e-13       0.000000000000e+00       9.841536973314e-11       9.703631939147e-12      -9.737948378543e-15 
   38       1.595149099306e-10       6.453605988806e-15       2.552489047937e-13       0.000000000000e+00       9.324128013416e-11       9.239915959601e-12      -8.885795809903e-15 
   39       1.619201145366e-10       7.046404377476e-15       2.487527619813e-13       0.000000000000e+00       8.845415684257e-11       8.816127730654e-12      -7.791313774430e-15 
   40       1.643527327298e-10       7.673546376521e-15       2.408428712541e-13       0.000000000000e+00       8.400829580154e-11       8.422212112564e-12      -6.826528234642e-15 
   41       1.668062855876e-10       8.335664423696e-15       2.315787195256e-13       0.000000000000e+00       7.984464853364e-11       8.047253604486e-12      -6.339271463040e-15 
   42       1.692839130825e-10       9.033424376806e-15       2.209335468096e-13       0.000000000000e+00       7.595093213177e-11       7.690528953425e-12      -6.311246920763e-15 
   43       1.717891980604e-10       9.767471314238e-15       2.088537698440e-13       0.000000000000e+00       7.231679170848e-11       7.353523025873e-12      -6.596621649598e-15 
   44       1.743224322507e-10       1.053840739296e-14       1.952815963184e-13       0.000000000000e+00       6.891576344523e-11       7.036806117574e-12      -7.012368543944e-15 
   45       1.768820084104e-10       1.134678374240e-14       1.801603202686e-13       0.000000000000e+00       6.571472172396e-11       6.740158214301e-12      -7.379185921227e-15 
   46       1.794698754789e-10       1.219307822503e-14       1.634530136141e-13       0.000000000000e+00       6.270861010287e-11       6.463184508819e-12      -7.664256294305e-15 
   47       1.820871495140e-10       1.307770744043e-14       1.451287603484e-13       0.000000000000e+00       5.989391237943e-11       6.204740659294e-12      -7.877260202886e-15 
   48       1.847323044221e-10       1.400102975533e-14       1.251573965654e-13       0.000000000000e+00       5.725817754627e-11       5.962669969185e-12      -8.031052507894e-15 
   49       1.874009392319e-10       1.496334284979e-14       1.035094484962e-13       0.000000000000e+00       5.477935545931e-11       5.733731185831e-12      -8.141854635416e-15 
   50       1.900880851913e-10       1.596488114390e-14       8.015570298409e-14       0.000000000000e+00       5.243243426880e-11       5.514526302706e-12      -8.228416609791e-15 
   51       1.927964052608e-10       1.700581294787e-14       5.506592521180e-14       0.000000000000e+00       5.021301794035e-11       5.304748370171e-12      -8.308788997510e-15 
   52       1.955298179962e-10       1.808623829661e-14       2.820968580924e-14       0.000000000000e+00       4.811900024708e-11       5.104690461667e-12      -8.403007049424e-15 
   53       1.982910417282e-10       1.920618660023e-14      -4.433793839140e-16       0.000000000000e+00       4.614350924767e-11       4.914298174977e-12      -8.534184682201e-15 
   54       2.010814813553e-10       2.036561418447e-14      -3.092364857808e-14       0.000000000000e+00       4.427458656684e-11       4.733144489810e-12      -8.728658241761e-15 
   55       2.039017088912e-10       2.156443972829e-14      -6.325684391880e-14       0.000000000000e+00       4.249883336829e-11       4.560644897421e-12      -9.007191418930e-15 
   56       2.067533042446e-10       2.280266652035e-14      -9.744848098563e-14       0.000000000000e+00       4.081414365940e-11       4.396822971638e-12      -9.355702077462e-15 
   57       2.096372734394e-10       2.408028626557e-14      -1.334956950449e-13       0.000000000000e+00       3.921957244740e-11       4.241690943194e-12      -9.747515154608e-15 
   58       2.125534068135e-10       2.539724288729e-14      -1.713915484868e-13       0.000000000000e+00       3.771148363333e-11       4.095010652791e-12      -1.015146432086e-14 
   59       2.155001889469e-10       2.675343154430e-14      -2.111249250449e-13       0.000000000000e+00       3.628338383892e-11       3.956277769927e-12      -1.053168747659e-14 
   60       2.184747085878e-10       2.814869764774e-14      -2.526804240154e-13       0.000000000000e+00       3.492575623365e-11       3.824706011729e-12      -1.084742224868e-14 
   61       2.214739588793e-10       2.958277156441e-14      -2.960409187014e-13       0.000000000000e+00       3.362870181740e-11       3.699445872500e-12      -1.106240224951e-14 
   62       2.244992828515e-10       3.105505782355e-14      -3.411961421213e-13       0.000000000000e+00       3.239093199656e-11       3.580333885695e-12      -1.117597309328e-14 
   63       2.275527704723e-10       3.256479663552e-14      -3.881358495156e-13       0.000000000000e+00       3.121250879726e-11       3.467284303257e-12      -1.119862959421e-14 
   64       2.306359113513e-10       3.411112106656e-14      -4.368473033518e-13       0.000000000000e+00       3.009213995649e-11       3.360061250291e-12      -1.114312945271e-14 
   65       2.337495487789e-10       3.569305401514e-14      -4.873152520770e-13       0.000000000000e+00       2.902710182761e-11       3.258270384741e-12      -1.102459337698e-14 
   66       2.368938337673e-10       3.730950518832e-14      -5.395219088719e-13       0.000000000000e+00       2.801316228565e-11       3.161350557073e-12      -1.086060520454e-14 
   67       2.400681790905e-10       3.895926807807e-14      -5.934469304033e-13       0.000000000000e+00       2.704450363281e-11       3.068565469948e-12      -1.067131202381e-14 
   68       2.432718491369e-10       4.064113580608e-14      -6.490684927088e-13       0.000000000000e+00       2.611527552211e-11       2.979193016701e-12      -1.047558275683e-14 
   69       2.465059709896e-10       4.235428267451e-14      -7.063668194928e-13       0.000000000000e+00       2.522479145127e-11       2.893156490063e-12      -1.027835624328e-14 
   70       2.497718501521e-10       4.409795485085e-14      -7.653213338723e-13       0.000000000000e+00       2.437325155716e-11       2.810506877681e-12      -1.008089762911e-14 
   71       2.530703416251e-10       4.587135835620e-14      -8.259096311924e-13       0.000000000000e+00       2.356017099038e-11       2.731233274101e-12      -9.884512405422e-15 
   72       2.564018202078e-10       4.767365908171e-14      -8.881074858394e-13       0.000000000000e+00       2.278434450913e-11       2.655259596171e-12      -9.690545723463e-15 
   73       2.597661507993e-10       4.950398280504e-14      -9.518888580530e-13       0.000000000000e+00       2.204381107306e-11       2.582441298447e-12      -9.500381709546e-15 
   74       2.631626586999e-10       5.136141520683e-14      -1.017225900740e-12       0.000000000000e+00       2.133581843714e-11       2.512562088590e-12      -9.315442780009e-15 
   75       2.665900999130e-10       5.324500188713e-14      -1.084088966287e-12       0.000000000000e+00       2.065678774552e-11       2.445330642773e-12      -9.137188956154e-15 
   76       2.700472553613e-10       5.515369400684e-14      -1.152446061872e-12       0.000000000000e+00       2.000320146264e-11       2.380457417626e-12      -8.967033181109e-15 
   77       2.735349042868e-10       5.708617373158e-14      -1.222261085680e-12       0.000000000000e+00       1.937453236572e-11       2.317908517708e-12      -8.806070956676e-15 
   78       2.770541584254e-10       5.904099683863e-14      -1.293495279934e-12       0.000000000000e+00       1.877078682385e-11       2.257692369625e-12      -8.655299930798e-15 
   79       2.806058533848e-10       6.101664318743e-14      -1.366107749445e-12       0.000000000000e+00       1.819161263844e-11       2.199782116816e-12      -8.515697153319e-15 
   80       2.841905317402e-10       6.301151562093e-14      -1.440055457104e-12       0.000000000000e+00       1.763628257079e-11       2.144113977405e-12      -8.388216668485e-15 
   81       2.878084261287e-10       6.502393886714e-14      -1.515293219400e-12       0.000000000000e+00       1.710367786976e-11       2.090585602042e-12      -8.273787107442e-15 
   82       2.914594423457e-10       6.705215844051e-14      -1.591773701911e-12       0.000000000000e+00       1.659227179941e-11       2.039054431755e-12      -8.173309280735e-15 
   83       2.951431424393e-10       6.909433954343e-14      -1.669447414816e-12       0.000000000000e+00       1.610011316660e-11       1.989336055794e-12      -8.087653770806e-15 
   84       2.988590254623e-10       7.114863312348e-14      -1.748263415231e-12       0.000000000000e+00       1.562530025391e-11       1.941250356702e-12      -8.017242704993e-15 
   85       3.026074602328e-10       7.321338903402e-14      -1.828171557853e-12       0.000000000000e+00       1.516752897343e-11       1.894772332158e-12      -7.960720685813e-15 
   86       3.063888769306e-10       7.528697636128e-14      -1.909120610912e-12       0.000000000000e+00       1.472677235610e-11       1.849903381646e-12      -7.916058090607e-15 
   87       3.102034714624e-10       7.736771944013e-14      -1.991057589794e-12       0.000000000000e+00       1.430280485672e-11       1.806624915651e-12      -7.880938043477e-15 
   88       3.140511935604e-10       7.945389788420e-14      -2.073927764417e-12       0.000000000000e+00       1.389519412374e-11       1.764897516653e-12      -7.852747019225e-15 
   89       3.179317348799e-10       8.154374661598e-14      -2.157674666615e-12       0.000000000000e+00       1.350329276895e-11       1.724660100121e-12      -7.828565447279e-15 
   90       3.218445170972e-10       8.363545589700e-14      -2.242240097527e-12       0.000000000000e+00       1.312623013726e-11       1.685829075504e-12      -7.805158315640e-15 
   91       3.257886800077e-10       8.572717135787e-14      -2.327564134975e-12       0.000000000000e+00       1.276290407642e-11       1.648297507229e-12      -7.778965774811e-15 
   92       3.297630696236e-10       8.781699402849e-14      -2.413585140848e-12       0.000000000000e+00       1.241197270677e-11       1.611934275691e-12      -7.746093741733e-15 
   93       3.337665846775e-10       8.990300932710e-14      -2.500240540417e-12       0.000000000000e+00       1.207217263912e-11       1.576616259540e-12      -7.703207561489e-15 
   94       3.377993015983e-10       9.198337894976e-14      -2.587469278306e-12       0.000000000000e+00       1.174334625194e-11       1.542332241630e-12      -7.650387149313e-15 
   95       3.418614975128e-10       9.405626292105e-14      -2.675209747268e-12       0.000000000000e+00       1.142555441870e-11       1.509093152006e-12      -7.588685887848e-15 
   96       3.459533000280e-10       9.611979228840e-14      -2.763399066908e-12       0.000000000000e+00       1.111876012733e-11       1.476900058494e-12      -7.519268790821e-15 
   97       3.500746802483e-10       9.817206954976e-14      -2.851973101661e-12       0.000000000000e+00       1.082282473106e-11       1.445743780972e-12      -7.443415503113e-15 
   98       3.542254457934e-10       1.002111690812e-13      -2.940866478773e-12       0.000000000000e+00       1.053750419924e-11       1.415604505642e-12      -7.362523300816e-15 
   99       3.584052338159e-10       1.022351375645e-13      -3.030012606279e-12       0.000000000000e+00       1.026244536820e-11       1.386451399299e-12      -7.278110091294e-15 
  100       3.626135040193e-10       1.042419944149e-13      -3.119343690986e-12       0.000000000000e+00       9.997182192089e-12       1.358242223606e-12      -7.191817413248e-15 
  101       3.668495316753e-10       1.062297322086e-13      -3.208790756447e-12       0.000000000000e+00       9.741131993702e-12       1.330922949362e-12      -7.105413436774e-15 
  102       3.711124006416e-10       1.081963171107e-13      -3.298283660946e-12       0.000000000000e+00       9.493591715345e-12       1.304427370778e-12      -7.020795963425e-15 
  103       3.754009963799e-10       1.101396893023e-13      -3.387751115476e-12       0.000000000000e+00       9.253734169663e-12       1.278676719742e-12      -6.939995426276e-15 
  104       3.797142379475e-10       1.120578142795e-13      -3.477121281061e-12       0.000000000000e+00       9.020795472302e-12       1.253598211612e-12      -6.864738224929e-15 
  105       3.840518247025e-10       1.139488437199e-13      -3.566323613909e-12       0.000000000000e+00       8.794674250800e-12       1.229184366554e-12      -6.795063089649e-15 
  106       3.884135779205e-10       1.158109772447e-13      -3.655287304194e-12       0.000000000000e+00       8.575406767398e-12       1.205441019846e-12      -6.730522531049e-15 
  107       3.927992065237e-10       1.176424144637e-13      -3.743940743019e-12       0.000000000000e+00       8.362981337070e-12       1.182368930410e-12      -6.670604005095e-15 
