# dimensionless total lensed [l(l+1)/2pi] C_l's
# for l=2 to 2500, i.e. number of multipoles equal to 2499
#
# -> if you prefer output in CAMB/HealPix/LensPix units/order, set 'format' to 'camb' in input file
# -> if you don't want to see such a header, set 'headers' to 'no' in input file
# -> for CMB lensing (phi), these are C_l^phi-phi for the lensing potential.
#    Remember the conversion factors:
#    C_l^dd (deflection) = l(l+1) C_l^phi-phi
#    C_l^gg (shear/convergence) = 1/4 (l(l+1))^2 C_l^phi-phi
#
# 1:l     2:TT                     3:EE                     4:TE                     5:BB                     6:phiphi                 7:TPhi                   8:Ephi               
    2       1.422969414102e-10       4.161702321446e-15       3.794130358076e-13       2.266454435663e-19       8.228427197299e-09       4.314481854267e-10      -1.840049635236e-12 
    3       1.347239471924e-10       5.343554414465e-15       4.237268306806e-13       4.533846611171e-19       5.062561431685e-09       3.069460349503e-10      -1.394939303627e-12 
    4       1.273650896326e-10       4.632109305831e-15       3.945183143385e-13       7.558476141704e-19       3.517604007295e-09       2.326920087821e-10      -9.149122741220e-13 
    5       1.217336949650e-10       3.097393369701e-15       3.342186859112e-13       1.134154172305e-18       2.624630137097e-09       1.838318777010e-10      -5.103209023294e-13 
    6       1.177683689371e-10       1.735251825649e-15       2.672152720585e-13       1.588449855189e-18       2.049778536027e-09       1.495300483394e-10      -2.117257772220e-13 
    7       1.150881078538e-10       9.376912308240e-16       2.077142540127e-13       2.118903147608e-18       1.653544623104e-09       1.243406709427e-10      -2.077175775332e-14 
    8       1.134131236528e-10       6.038539301405e-16       1.619876089210e-13       2.725702461754e-18       1.366638882524e-09       1.052387318912e-10       7.719380076337e-14 
    9       1.124930968936e-10       4.847172979950e-16       1.314045280559e-13       3.409052836299e-18       1.150811602077e-09       9.041562871572e-11       1.052115821559e-13 
   10       1.121015126969e-10       4.144038404464e-16       1.145188897655e-13       4.169172468094e-18       9.835358126129e-10       7.867085067937e-11       8.890027983556e-14 
   11       1.121736027745e-10       3.498839205822e-16       1.084141223317e-13       5.006289175350e-18       8.285452519781e-10       6.949711019163e-11       5.221881112929e-14 
   12       1.125611534487e-10       3.061770820855e-16       1.097346406431e-13       5.920636890729e-18       7.238384791041e-10       6.141313674858e-11       1.272585589696e-14 
   13       1.132111476779e-10       2.945255400751e-16       1.154929583540e-13       6.912452278950e-18       6.378941255931e-10       5.486434432788e-11      -1.755107778996e-14 
   14       1.140702672438e-10       3.073213159209e-16       1.234447286815e-13       7.981971566532e-18       5.663978684689e-10       4.914340550338e-11      -3.426744729292e-14 
   15       1.151277780376e-10       3.328089919820e-16       1.321916822502e-13       9.129427661327e-18       5.062238140146e-10       4.434484244875e-11      -3.748937524655e-14 
   16       1.163112216688e-10       3.682793799082e-16       1.409758500581e-13       1.035504762708e-17       4.550681695767e-10       4.021606900659e-11      -3.107604079733e-14 
   17       1.176401480099e-10       4.192312426919e-16       1.495837870332e-13       1.165905056373e-17       4.111906818015e-10       3.661638623364e-11      -2.016408235140e-14 
   18       1.190532288278e-10       4.911553498871e-16       1.583092683112e-13       1.304164575234e-17       3.731118332142e-10       3.347347325315e-11      -9.645991744897e-15 
   19       1.205614159842e-10       5.844292907869e-16       1.673858567015e-13       1.450303231390e-17       3.402268889660e-10       3.074461072923e-11      -2.158060257285e-15 
   20       1.221535665508e-10       6.970996309572e-16       1.769696351381e-13       1.604339649465e-17       3.112665929599e-10       2.832647703179e-11       5.409441528076e-16 
   21       1.238325430381e-10       8.285366162046e-16       1.870586289312e-13       1.766291407847e-17       2.857753784295e-10       2.617438565321e-11      -1.023464630052e-15 
   22       1.255740170711e-10       9.782549065522e-16       1.975159713415e-13       1.936174741238e-17       2.631429839224e-10       2.423071060508e-11      -5.143179130387e-15 
   23       1.273808294261e-10       1.146484774588e-15       2.079914000854e-13       2.114004922035e-17       2.430578564951e-10       2.248516413598e-11      -1.008542271452e-14 
   24       1.292432128822e-10       1.333483764156e-15       2.180252482052e-13       2.299795957678e-17       2.250552303984e-10       2.092115108809e-11      -1.398863852925e-14 
   25       1.311649556220e-10       1.539284523033e-15       2.273323816296e-13       2.493561136517e-17       2.089230223378e-10       1.952277557103e-11      -1.599979404563e-14 
   26       1.331373078241e-10       1.764082514842e-15       2.356821522239e-13       2.695312662844e-17       1.943689060873e-10       1.825982727362e-11      -1.575352831789e-14 
   27       1.351529256094e-10       2.009871519985e-15       2.429525850590e-13       2.905062181573e-17       1.812180152184e-10       1.711274417403e-11      -1.384644125114e-14 
   28       1.371962594340e-10       2.279196038447e-15       2.490867939372e-13       3.122820528928e-17       1.692433470759e-10       1.605843015743e-11      -1.126873885050e-14 
   29       1.392765579744e-10       2.573541625794e-15       2.541503464137e-13       3.348598588500e-17       1.583836133131e-10       1.509528464341e-11      -8.678575444154e-15 
   30       1.413995411895e-10       2.894061976190e-15       2.582867628401e-13       3.582406577141e-17       1.485220740928e-10       1.422019072225e-11      -6.749615337948e-15 
   31       1.435602096561e-10       3.241848916758e-15       2.616446486513e-13       3.824254042425e-17       1.394574030834e-10       1.342171590372e-11      -6.107287462486e-15 
   32       1.457613081648e-10       3.617825548172e-15       2.641811418003e-13       4.074150942653e-17       1.311426835929e-10       1.269126970799e-11      -6.583308783321e-15 
   33       1.479990456847e-10       4.022799711991e-15       2.657840712359e-13       4.332106950759e-17       1.235190084092e-10       1.201444414643e-11      -7.669225471555e-15 
   34       1.502626880917e-10       4.457526462835e-15       2.663235508952e-13       4.598131324713e-17       1.164795582172e-10       1.137375437270e-11      -8.794641083524e-15 
   35       1.525548708555e-10       4.922859153630e-15       2.656611654743e-13       4.872233442357e-17       1.099882287122e-10       1.077134134634e-11      -9.668641119774e-15 
   36       1.548766461801e-10       5.419642248603e-15       2.636412938847e-13       5.154422465156e-17       1.039928696610e-10       1.021350310986e-11      -1.004898992281e-14 
   37       1.572245939170e-10       5.948673429352e-15       2.601211318867e-13       5.444707157843e-17       9.841536895319e-11       9.703705994939e-12      -9.737936137184e-15 
   38       1.596022738974e-10       6.510724375808e-15       2.550872487545e-13       5.743095716683e-17       9.324127941279e-11       9.239983570896e-12      -8.885787474162e-15 
   39       1.620113886358e-10       7.106520386504e-15       2.485781554184e-13       6.049595897565e-17       8.845415617447e-11       8.816180885465e-12      -7.791301794914e-15 
   40       1.644479634030e-10       7.736730177365e-15       2.406548435254e-13       6.364215069954e-17       8.400829518175e-11       8.422247813228e-12      -6.826509182271e-15 
   41       1.669055087972e-10       8.401984617149e-15       2.313767838928e-13       6.686959938385e-17       7.984464795774e-11       8.047273928283e-12      -6.339246055161e-15 
   42       1.693871635699e-10       9.102948988396e-15       2.207172628263e-13       7.017835583238e-17       7.595093159569e-11       7.690537415883e-12      -6.311216792743e-15 
   43       1.718965126181e-10       9.840268144817e-15       2.086227689015e-13       7.356846117973e-17       7.231679120860e-11       7.353523562095e-12      -6.596588429544e-15 
   44       1.744338507297e-10       1.061454412730e-14       1.950355933761e-13       7.703994933571e-17       6.891576297864e-11       7.036803068844e-12      -7.012333811285e-15 
   45       1.769975734722e-10       1.142632777194e-14       1.798991190394e-13       8.059284331369e-17       6.571472128850e-11       6.740156126024e-12      -7.379151157453e-15 
   46       1.795896279972e-10       1.227609549087e-14       1.631764884164e-13       8.422714322976e-17       6.270860969646e-11       6.463187301787e-12      -7.664222814875e-15 
   47       1.822111271262e-10       1.316426197777e-14       1.448368552972e-13       8.794283448271e-17       5.989391199992e-11       6.204751235546e-12      -7.877229096927e-15 
   48       1.848605412669e-10       1.409118349895e-14       1.248501314450e-13       9.173989064536e-17       5.725817719151e-11       5.962689974350e-12      -8.031024578711e-15 
   49       1.875334656689e-10       1.505715543108e-14       1.031869247998e-13       9.561827312401e-17       5.477935512723e-11       5.733760757990e-12      -8.141830337562e-15 
   50       1.902249280119e-10       1.606240987310e-14       7.981811007581e-14       9.957793073164e-17       5.243243395744e-11       5.514564014414e-12      -8.228396007091e-15 
   51       1.929375895646e-10       1.710711343033e-14       5.471354651075e-14       1.036187990612e-16       5.021301764779e-11       5.304791843094e-12      -8.308771798668e-15 
   52       1.956753678253e-10       1.819136457271e-14       2.784290524639e-14       1.077408003536e-16       4.811899997144e-11       5.104736467870e-12      -8.402992581150e-15 
   53       1.984409802406e-10       1.931519110757e-14      -8.240707027464e-16       1.119438432322e-16       4.614350898719e-11       4.914342543849e-12      -8.534171837519e-15 
   54       2.012358310067e-10       2.047854772087e-14      -3.131764554431e-14       1.162278223586e-16       4.427458631991e-11       4.733182011227e-12      -8.728645426018e-15 
   55       2.040604914693e-10       2.168135131737e-14      -6.366342502999e-14       1.205926261659e-16       4.249883313349e-11       4.560669717279e-12      -9.007176647373e-15 
   56       2.069165404059e-10       2.292360295467e-14      -9.786682093398e-14       1.250381630980e-16       4.081414343545e-11       4.396830616330e-12      -9.355683576884e-15 
   57       2.098049826327e-10       2.420529189351e-14      -1.339248657583e-13       1.295643412852e-16       3.921957223314e-11       4.241679113221e-12      -9.747491582114e-15 
   58       2.127256073480e-10       2.552635948804e-14      -1.718305159078e-13       1.341710610078e-16       3.771148342774e-11       4.094979570934e-12      -1.015143484336e-14 
   59       2.156768980608e-10       2.688669819978e-14      -2.115725459240e-13       1.388582146663e-16       3.628338364123e-11       3.956230544990e-12      -1.053165185396e-14 
   60       2.186559425194e-10       2.828615061149e-14      -2.531354427185e-13       1.436256867513e-16       3.492575604333e-11       3.824649017851e-12      -1.084738092068e-14 
   61       2.216597324704e-10       2.972444426107e-14      -2.965019609961e-13       1.484733689672e-16       3.362870163416e-11       3.699388239892e-12      -1.106235628778e-14 
   62       2.246896076263e-10       3.120098128117e-14      -3.416616990749e-13       1.534012096383e-16       3.239093182017e-11       3.580284057373e-12      -1.117592370516e-14 
   63       2.277476539001e-10       3.271499957718e-14      -3.886042690769e-13       1.584091753899e-16       3.121250862744e-11       3.467248891844e-12      -1.119857798026e-14 
   64       2.308353565328e-10       3.426562987814e-14      -4.373167846920e-13       1.634972374149e-16       3.009213979298e-11       3.360044727990e-12      -1.114307679322e-14 
   65       2.339535541196e-10       3.585189271421e-14      -4.877838398488e-13       1.686653719252e-16       2.902710167009e-11       3.258274760193e-12      -1.102454081773e-14 
   66       2.371023926368e-10       3.747269539425e-14      -5.399874873862e-13       1.739135606022e-16       2.801316213384e-11       3.161375039093e-12      -1.086055384191e-14 
   67       2.402812794686e-10       3.912682898330e-14      -5.939072177238e-13       1.792417910478e-16       2.704450348641e-11       3.068606118153e-12      -1.067126288920e-14 
   68       2.434894737358e-10       4.081308429186e-14      -6.495210428133e-13       1.846500654780e-16       2.611527538082e-11       2.979243123477e-12      -1.047553678621e-14 
   69       2.467280989476e-10       4.253063389146e-14      -7.068090507140e-13       1.901384278397e-16       2.522479131479e-11       2.893209357996e-12      -1.027831420059e-14 
   70       2.499984574516e-10       4.427872243143e-14      -7.657505362610e-13       1.957069430240e-16       2.437325142521e-11       2.810556665576e-12      -1.008086006517e-14 
   71       2.533014010473e-10       4.605655449698e-14      -8.263229663271e-13       2.013556897592e-16       2.356017086269e-11       2.731275147295e-12      -9.884479629126e-15 
   72       2.566373012870e-10       4.786329463050e-14      -8.885019867627e-13       2.070847612728e-16       2.278434438545e-11       2.655289882776e-12      -9.690517771812e-15 
   73       2.600060197759e-10       4.969806735288e-14      -9.522614293344e-13       2.128942659529e-16       2.204381095317e-11       2.582457651506e-12      -9.500358316695e-15 
   74       2.634068784725e-10       5.155995718478e-14      -1.017573318664e-12       2.187843280105e-16       2.133581832086e-11       2.512563654162e-12      -9.315423345222e-15 
   75       2.668386299893e-10       5.344800866796e-14      -1.084407879168e-12       2.247550881405e-16       2.065678763269e-11       2.445318233938e-12      -9.137172510708e-15 
   76       2.703000512043e-10       5.536117199170e-14      -1.152732982217e-12       2.308066973403e-16       2.000320135314e-11       2.380433351308e-12      -8.967018483499e-15 
   77       2.737919147205e-10       5.729812837790e-14      -1.222512355884e-12       2.369392955998e-16       1.937453225942e-11       2.317875355857e-12      -8.806057002112e-15 
   78       2.773153246236e-10       5.925743274489e-14      -1.293707059824e-12       2.431530305093e-16       1.877078672063e-11       2.257652566079e-12      -8.655286120383e-15 
   79       2.808711084196e-10       6.123756420106e-14      -1.366276011628e-12       2.494480642717e-16       1.819161253814e-11       2.199737988447e-12      -8.515683342127e-15 
   80       2.844598001159e-10       6.323692495076e-14      -1.440175982283e-12       2.558245742232e-16       1.763628247324e-11       2.144067674150e-12      -8.388203215231e-15 
   81       2.880816233041e-10       6.525383920020e-14      -1.515361591632e-12       2.622827533553e-16       1.710367777477e-11       2.090539075829e-12      -8.273774925744e-15 
   82       2.917364742411e-10       6.728655206333e-14      -1.591785303834e-12       2.688228108357e-16       1.659227170677e-11       2.039009404305e-12      -8.173299891968e-15 
   83       2.954239049315e-10       6.933322846775e-14      -1.669397422825e-12       2.754449725301e-16       1.610011307610e-11       1.989293985321e-12      -8.087649358548e-15 
   84       2.991434058657e-10       7.139201919216e-14      -1.748146807429e-12       2.821494778065e-16       1.562530016532e-11       1.941212442831e-12      -8.017245974060e-15 
   85       3.028953451483e-10       7.346127395400e-14      -1.827983162847e-12       2.889365682004e-16       1.516752888655e-11       1.894739645257e-12      -7.960734094372e-15 
   86       3.066801547631e-10       7.553936180548e-14      -1.908855122490e-12       2.958064978179e-16       1.472677227073e-11       1.849876886422e-12      -7.916083607716e-15 
   87       3.104980330515e-10       7.762460717650e-14      -1.990709569550e-12       3.027595373369e-16       1.430280477272e-11       1.806605456804e-12      -7.880977092694e-15 
   88       3.143489328314e-10       7.971528990878e-14      -2.073491644556e-12       3.097959744667e-16       1.389519404099e-11       1.764885804071e-12      -7.852800420490e-15 
   89       3.182325495151e-10       8.180964529003e-14      -2.157144752925e-12       3.169161144063e-16       1.350329268737e-11       1.724656693624e-12      -7.828633357092e-15 
   90       3.221483092274e-10       8.390586408812e-14      -2.241610572523e-12       3.241202803038e-16       1.312623005682e-11       1.685834369141e-12      -7.805240165504e-15 
   91       3.260953569237e-10       8.600209258520e-14      -2.326829061215e-12       3.314088137149e-16       1.276290399715e-11       1.648311713115e-12      -7.779060207964e-15 
   92       3.300725445081e-10       8.809643261187e-14      -2.412738464425e-12       3.387820750620e-16       1.241197262874e-11       1.611957407402e-12      -7.746198548161e-15 
   93       3.340787747940e-10       9.018697074843e-14      -2.499276095224e-12       3.462404513826e-16       1.207217256244e-11       1.576648132307e-12      -7.703319796578e-15 
   94       3.381141183692e-10       9.227187087824e-14      -2.586380792408e-12       3.537843799117e-16       1.174334617672e-11       1.542372526841e-12      -7.650503838740e-15 
   95       3.421788435202e-10       9.434929568230e-14      -2.673990847807e-12       3.614143289111e-16       1.142555434506e-11       1.509141384775e-12      -7.588804231633e-15 
   96       3.462730684539e-10       9.641737914119e-14      -2.762043284600e-12       3.691307912476e-16       1.111876005537e-11       1.476955628484e-12      -7.519386190698e-15 
   97       3.503967543005e-10       9.847422696956e-14      -2.850473875484e-12       3.769342849516e-16       1.082282466085e-11       1.445805923001e-12      -7.443529590717e-15 
   98       3.545496981155e-10       1.005179170507e-13      -2.939217160824e-12       3.848253537763e-16       1.053750413086e-11       1.415672290079e-12      -7.362631966702e-15 
   99       3.587315258831e-10       1.025464998710e-13      -3.028206466822e-12       3.928045677564e-16       1.026244530169e-11       1.386523722240e-12      -7.278211514780e-15 
  100       3.629416855188e-10       1.045579989546e-13      -3.117373923669e-12       4.008725237676e-16       9.997182127484e-12       1.358317796839e-12      -7.191910093083e-15 
  101       3.671794398719e-10       1.065504112978e-13      -3.206650483709e-12       4.090298460851e-16       9.741131931018e-12       1.331000290117e-12      -7.105496222628e-15 
  102       3.714438597283e-10       1.085217078036e-13      -3.295965939600e-12       4.172771869426e-16       9.493591654577e-12       1.304504791256e-12      -7.020868088212e-15 
  103       3.757338168135e-10       1.104698337161e-13      -3.385248942468e-12       4.256152270915e-16       9.253734110784e-12       1.278752316440e-12      -6.940056539295e-15 
  104       3.800482178270e-10       1.123927600091e-13      -3.474427601236e-12       4.340446570677e-16       9.020795415267e-12       1.253669929944e-12      -6.864788358433e-15 
  105       3.843867576240e-10       1.142886445197e-13      -3.563431333663e-12       4.425661169060e-16       8.794674195563e-12       1.229250303455e-12      -6.795102413672e-15 
  106       3.887492552062e-10       1.161556934927e-13      -3.652189300374e-12       4.511802492863e-16       8.575406713919e-12       1.205499520296e-12      -6.730551292774e-15 
  107       3.931354174795e-10       1.179921135533e-13      -3.740629870268e-12       4.598877184408e-16       8.362981285313e-12       1.182418611907e-12      -6.670622533161e-15 
