# dimensionless total [l(l+1)/2pi] C_l's
# for l=2 to 3000, i.e. number of multipoles equal to 2999
#
# -> if you prefer output in CAMB/HealPix/LensPix units/order, set 'format' to 'camb' in input file
# -> if you don't want to see such a header, set 'headers' to 'no' in input file
# -> for CMB lensing (phi), these are C_l^phi-phi for the lensing potential.
#    Remember the conversion factors:
#    C_l^dd (deflection) = l(l+1) C_l^phi-phi
#    C_l^gg (shear/convergence) = 1/4 (l(l+1))^2 C_l^phi-phi
#
# 1:l     2:TT                     3:EE                     4:TE                     5:BB                     6:phiphi                 7:TPhi                   8:Ephi               
    2       1.423013071916e-10       4.161489365248e-15       3.794379079647e-13       0.000000000000e+00       8.228450917273e-09       4.314348345116e-10      -1.840050464929e-12 
    3       1.347274674599e-10       5.343117669104e-15       4.237524275373e-13       0.000000000000e+00       5.062546678940e-09       3.069373400139e-10      -1.394940446714e-12 
    4       1.273675061819e-10       4.631368310929e-15       3.945407765816e-13       0.000000000000e+00       3.517594124390e-09       2.326857073082e-10      -9.149129740153e-13 
    5       1.217348856494e-10       3.096269306313e-15       3.342362706139e-13       0.000000000000e+00       2.624624664221e-09       1.838269503894e-10      -5.103211915096e-13 
    6       1.177682316646e-10       1.733669014507e-15       2.672277381063e-13       0.000000000000e+00       2.049774858283e-09       1.495260475485e-10      -2.117258429960e-13 
    7       1.150865517008e-10       9.355753786744e-16       2.077222950143e-13       0.000000000000e+00       1.653542216740e-09       1.243373346588e-10      -2.077171661759e-14 
    8       1.134100501488e-10       6.011302098502e-16       1.619924338335e-13       0.000000000000e+00       1.366636896669e-09       1.052358262597e-10       7.719390629720e-14 
    9       1.124884026408e-10       4.813097005414e-16       1.314074921002e-13       0.000000000000e+00       1.150809551020e-09       9.041302688297e-11       1.052117195616e-13 
   10       1.120951146303e-10       4.102355615953e-16       1.145211483113e-13       0.000000000000e+00       9.835335557136e-10       7.866854475495e-11       8.890040020092e-14 
   11       1.121653983124e-10       3.448779332605e-16       1.084166286001e-13       0.000000000000e+00       8.285438754024e-10       6.949510333064e-11       5.221888424942e-14 
   12       1.125510508610e-10       3.002562246108e-16       1.097381143560e-13       0.000000000000e+00       7.238372685392e-10       6.141133334587e-11       1.272589973442e-14 
   13       1.131990269656e-10       2.876124434333e-16       1.154978452656e-13       0.000000000000e+00       6.378930513881e-10       5.486269374407e-11      -1.755103221639e-14 
   14       1.140560702544e-10       2.993382789783e-16       1.234513732575e-13       0.000000000000e+00       5.663969084951e-10       4.914189299365e-11      -3.426740002596e-14 
   15       1.151113888547e-10       3.236779862513e-16       1.322003020687e-13       0.000000000000e+00       5.062229506346e-10       4.434347316032e-11      -3.748936420849e-14 
   16       1.162925823308e-10       3.579222932885e-16       1.409866174201e-13       0.000000000000e+00       4.550673887542e-10       4.021481747726e-11      -3.107608924623e-14 
   17       1.176191304255e-10       4.075693622200e-16       1.495969511869e-13       0.000000000000e+00       4.111899719853e-10       3.661521200078e-11      -2.016415590387e-14 
   18       1.190297680078e-10       4.781097282133e-16       1.583249883604e-13       0.000000000000e+00       3.731111855458e-10       3.347237319466e-11      -9.646016974624e-15 
   19       1.205354552660e-10       5.699212425597e-16       1.674044441949e-13       0.000000000000e+00       3.402262948534e-10       3.074358678321e-11      -2.158007451611e-15 
   20       1.221250183118e-10       6.810507958627e-16       1.769916399140e-13       0.000000000000e+00       3.112660462957e-10       2.832552219564e-11       5.410307352635e-16 
   21       1.238013177694e-10       8.108680862436e-16       1.870845205485e-13       0.000000000000e+00       2.857748738191e-10       2.617348719052e-11      -1.023406881555e-15 
   22       1.255400325234e-10       9.588870671906e-16       1.975460482606e-13       0.000000000000e+00       2.631425167922e-10       2.422985485377e-11      -5.143201177797e-15 
   23       1.273440088900e-10       1.125338505685e-15       2.080260491234e-13       0.000000000000e+00       2.430574227369e-10       2.248435283711e-11      -1.008551803207e-14 
   24       1.292034825917e-10       1.310480749804e-15       2.180650151468e-13       0.000000000000e+00       2.250548266689e-10       2.092040235496e-11      -1.398873440244e-14 
   25       1.311222361947e-10       1.514346104204e-15       2.273777913704e-13       0.000000000000e+00       2.089226456421e-10       1.952208543494e-11      -1.599983677991e-14 
   26       1.330915130833e-10       1.737129444309e-15       2.357336563165e-13       0.000000000000e+00       1.943685539087e-10       1.825916295421e-11      -1.575351311180e-14 
   27       1.351039786555e-10       1.980824969960e-15       2.430106538770e-13       0.000000000000e+00       1.812176852937e-10       1.711209125736e-11      -1.384638819488e-14 
   28       1.371440959163e-10       2.247977986455e-15       2.491519458434e-13       0.000000000000e+00       1.692430374761e-10       1.605780504405e-11      -1.126868224484e-14 
   29       1.392211113405e-10       2.540074713665e-15       2.542231317922e-13       0.000000000000e+00       1.583833222011e-10       1.509470138137e-11      -8.678537856061e-15 
   30       1.413407361168e-10       2.858269559415e-15       2.583677609143e-13       0.000000000000e+00       1.485217998309e-10       1.421964834226e-11      -6.749594996048e-15 
   31       1.434979629040e-10       3.203655015642e-15       2.617344625801e-13       0.000000000000e+00       1.394571443755e-10       1.342119894888e-11      -6.107259178597e-15 
   32       1.456955438629e-10       3.577154167051e-15       2.642803688549e-13       0.000000000000e+00       1.311424392121e-10       1.269076559005e-11      -6.583253608935e-15 
   33       1.479297018034e-10       3.979574538396e-15       2.658932877368e-13       0.000000000000e+00       1.235187772138e-10       1.201395016428e-11      -7.669142676800e-15 
   34       1.501897149054e-10       4.411671021853e-15       2.664433089475e-13       0.000000000000e+00       1.164793392329e-10       1.137327773485e-11      -8.794547369797e-15 
   35       1.524782137730e-10       4.874298022243e-15       2.657920106053e-13       0.000000000000e+00       1.099880210220e-10       1.077088920904e-11      -9.668549987498e-15 
   36       1.547962385494e-10       5.368301596773e-15       2.637837687448e-13       0.000000000000e+00       1.039926724373e-10       1.021307912428e-11      -1.004890384752e-14 
   37       1.571403583154e-10       5.894481025333e-15       2.602757706932e-13       0.000000000000e+00       9.841518150230e-11       9.703310054278e-12      -9.737847042289e-15 
   38       1.595141391800e-10       6.453608652801e-15       2.552545590402e-13       0.000000000000e+00       9.324110106277e-11       9.239613724946e-12      -8.885688417776e-15 
   39       1.619192964860e-10       7.046410140726e-15       2.487586078437e-13       0.000000000000e+00       8.845398627786e-11       8.815833760125e-12      -7.791191121493e-15 
   40       1.643518708788e-10       7.673554509279e-15       2.408488646212e-13       0.000000000000e+00       8.400813316601e-11       8.421918440674e-12      -6.826391775568e-15 
   41       1.668053873608e-10       8.335673009488e-15       2.315847543704e-13       0.000000000000e+00       7.984449334847e-11       8.046956173267e-12      -6.339132593544e-15 
   42       1.692829857942e-10       9.033431863335e-15       2.209395356478e-13       0.000000000000e+00       7.595078393675e-11       7.690226440104e-12      -6.311116036380e-15 
   43       1.717882474851e-10       9.767477087317e-15       2.088596734081e-13       0.000000000000e+00       7.231665005926e-11       7.353216902569e-12      -6.596504342561e-15 
   44       1.743214621784e-10       1.053841198224e-14       1.952874340825e-13       0.000000000000e+00       6.891562794166e-11       7.036501204672e-12      -7.012264504731e-15 
   45       1.768810204944e-10       1.134678871156e-14       1.801661653639e-13       0.000000000000e+00       6.571459202203e-11       6.739862268960e-12      -7.379089339066e-15 
   46       1.794688701297e-10       1.219308497414e-14       1.634589338919e-13       0.000000000000e+00       6.270848586586e-11       6.462904499981e-12      -7.664161443545e-15 
   47       1.820861260119e-10       1.307771679158e-14       1.451347982462e-13       0.000000000000e+00       5.989379327555e-11       6.204481419692e-12      -7.877163282273e-15 
   48       1.847312607282e-10       1.400104183122e-14       1.251635634952e-13       0.000000000000e+00       5.725806326464e-11       5.962433733084e-12      -8.030952073740e-15 
   49       1.873998717882e-10       1.496335694550e-14       1.035157189159e-13       0.000000000000e+00       5.477924572709e-11       5.733517101184e-12      -8.141752059270e-15 
   50       1.900869894048e-10       1.596489582427e-14       8.016201904406e-14       0.000000000000e+00       5.243232885656e-11       5.514330514186e-12      -8.228315703413e-15 
   51       1.927952782764e-10       1.700582690904e-14       5.507223724997e-14       0.000000000000e+00       5.021291662543e-11       5.304566056914e-12      -8.308692816452e-15 
   52       1.955286597855e-10       1.808625065917e-14       2.821596618071e-14       0.000000000000e+00       4.811890280959e-11       5.104516406653e-12      -8.402916794522e-15 
   53       1.982898555619e-10       1.920619699237e-14      -4.371323281836e-16       0.000000000000e+00       4.614341547909e-11       4.914126786726e-12      -8.534099375853e-15 
   54       2.010802742993e-10       2.036562282938e-14      -3.091740631684e-14       0.000000000000e+00       4.427449627923e-11       4.732969826547e-12      -8.728574388375e-15 
   55       2.039004914870e-10       2.156444738982e-14      -6.325055257358e-14       0.000000000000e+00       4.249874639694e-11       4.560461042218e-12      -9.007103427998e-15 
   56       2.067520874548e-10       2.280267397277e-14      -9.744209615941e-14       0.000000000000e+00       4.081405984282e-11       4.396625556856e-12      -9.355605232674e-15 
   57       2.096360676886e-10       2.408029412841e-14      -1.334891937512e-13       0.000000000000e+00       3.921949162535e-11       4.241477815478e-12      -9.747406641673e-15 
   58       2.125522217992e-10       2.539725159427e-14      -1.713849327078e-13       0.000000000000e+00       3.771140565176e-11       4.094782230283e-12      -1.015134354644e-14 
   59       2.154990334401e-10       2.675344131069e-14      -2.111182254509e-13       0.000000000000e+00       3.628330855528e-11       3.956037415544e-12      -1.053155640175e-14 
   60       2.184735902243e-10       2.814870843636e-14      -2.526737038472e-13       0.000000000000e+00       3.492568352241e-11       3.824460422489e-12      -1.084728573679e-14 
   61       2.214728835773e-10       2.958278310916e-14      -2.960342680056e-13       0.000000000000e+00       3.362863157079e-11       3.699204538939e-12      -1.106226763174e-14 
   62       2.244982530314e-10       3.105506984424e-14      -3.411896401509e-13       0.000000000000e+00       3.239086410875e-11       3.580105481328e-12      -1.117584714880e-14 
   63       2.275517841878e-10       3.256480890192e-14      -3.881295520747e-13       0.000000000000e+00       3.121244316183e-11       3.467075480265e-12      -1.119851755847e-14 
   64       2.306349617387e-10       3.411113340757e-14      -4.368412391717e-13       0.000000000000e+00       3.009207646899e-11       3.359876306677e-12      -1.114303476084e-14 
   65       2.337486234862e-10       3.569306632832e-14      -4.873094190437e-13       0.000000000000e+00       2.902704038818e-11       3.258110917530e-12      -1.102451739636e-14 
   66       2.368929143614e-10       3.730951744979e-14      -5.395162701037e-13       0.000000000000e+00       2.801310280186e-11       3.161215101546e-12      -1.086054695665e-14 
   67       2.400672404434e-10       3.895928035286e-14      -5.934414101797e-13       0.000000000000e+00       2.704444602255e-11       3.068449124920e-12      -1.067126789523e-14 
   68       2.432708611658e-10       4.064114823831e-14      -6.490629832048e-13       0.000000000000e+00       2.611521971371e-11       2.979087893888e-12      -1.047554689362e-14 
   69       2.465049080602e-10       4.235429541138e-14      -7.063612228051e-13       0.000000000000e+00       2.522473737404e-11       2.893054860833e-12      -1.027832318040e-14 
   70       2.497706943407e-10       4.409796802011e-14      -7.653155756694e-13       0.000000000000e+00       2.437319913981e-11       2.810402146411e-12      -1.008086312036e-14 
   71       2.530690837813e-10       4.587137206275e-14      -8.259036641714e-13       0.000000000000e+00       2.356012016231e-11       2.731120169184e-12      -9.884473606160e-15 
   72       2.564004610569e-10       4.767367340416e-14      -8.881012933142e-13       0.000000000000e+00       2.278429520180e-11       2.655134368499e-12      -9.690501380229e-15 
   73       2.597647020844e-10       4.950399779208e-14      -9.518824576729e-13       0.000000000000e+00       2.204376322141e-11       2.582301927355e-12      -9.500332356669e-15 
   74       2.631611443637e-10       5.136143087351e-14      -1.017219348339e-12       0.000000000000e+00       2.133577198112e-11       2.512408495289e-12      -9.315390943168e-15 
   75       2.665885573184e-10       5.324501821098e-14      -1.084082359866e-12       0.000000000000e+00       2.065674263163e-11       2.445164911242e-12      -9.137139362902e-15 
   76       2.700457327120e-10       5.515371093104e-14      -1.152439533016e-12       0.000000000000e+00       2.000315764384e-11       2.380283555347e-12      -8.966992337188e-15 
   77       2.735334457579e-10       5.708619119094e-14      -1.222254750352e-12       0.000000000000e+00       1.937448979576e-11       2.317730722507e-12      -8.806044670825e-15 
   78       2.770527994041e-10       5.904101476674e-14      -1.293489222691e-12       0.000000000000e+00       1.877074545633e-11       2.257514530298e-12      -8.655292527871e-15 
   79       2.806046193139e-10       6.101666151695e-14      -1.366102019559e-12       0.000000000000e+00       1.819157242744e-11       2.199607755144e-12      -8.515711289291e-15 
   80       2.841894369221e-10       6.301153428398e-14      -1.440050064560e-12       0.000000000000e+00       1.763624347163e-11       2.143946188048e-12      -8.388253139262e-15 
   81       2.878074724910e-10       6.502395779562e-14      -1.515288130753e-12       0.000000000000e+00       1.710363983972e-11       2.090426990323e-12      -8.273844651489e-15 
   82       2.914586181665e-10       6.705217756652e-14      -1.591768836029e-12       0.000000000000e+00       1.659223479852e-11       2.038907049322e-12      -8.173384375508e-15 
   83       2.951424210340e-10       6.909435879963e-14      -1.669442638482e-12       0.000000000000e+00       1.610007715849e-11       1.989201334170e-12      -8.087740423002e-15 
   84       2.988583673593e-10       7.114865244521e-14      -1.748258552014e-12       0.000000000000e+00       1.562526520570e-11       1.941129112432e-12      -8.017332876138e-15 
   85       3.026068265662e-10       7.321340836680e-14      -1.828166439580e-12       0.000000000000e+00       1.516749485274e-11       1.894665005038e-12      -7.960806758458e-15 
   86       3.063882334123e-10       7.528699566387e-14      -1.909115093404e-12       0.000000000000e+00       1.472673913051e-11       1.849810074809e-12      -7.916133622435e-15 
   87       3.102027890111e-10       7.736773868594e-14      -1.991051555915e-12       0.000000000000e+00       1.430277249423e-11       1.806545364510e-12      -7.880997914479e-15 
   88       3.140504489503e-10       7.945391706285e-14      -2.073921127233e-12       0.000000000000e+00       1.389516259311e-11       1.764831056961e-12      -7.852787583462e-15 
   89       3.179309114096e-10       8.154376573482e-14      -2.157667372642e-12       0.000000000000e+00       1.350326204017e-11       1.724605635160e-12      -7.828584689250e-15 
   90       3.218436052790e-10       8.363547498270e-14      -2.242232130073e-12       0.000000000000e+00       1.312620018197e-11       1.685785042393e-12      -7.805156011229e-15 
   91       3.257876782766e-10       8.572719045810e-14      -2.327555517583e-12       0.000000000000e+00       1.276287486839e-11       1.648261842355e-12      -7.778943656835e-15 
   92       3.297619850666e-10       8.781701321353e-14      -2.413575940832e-12       0.000000000000e+00       1.241194422236e-11       1.611904379261e-12      -7.746055670085e-15 
   93       3.337654321748e-10       8.990302868680e-14      -2.500230864488e-12       0.000000000000e+00       1.207214485711e-11       1.576589112115e-12      -7.703159226479e-15 
   94       3.377980978833e-10       9.198339857505e-14      -2.587459242891e-12       0.000000000000e+00       1.174331915135e-11       1.542305004639e-12      -7.650334284355e-15 
   95       3.418602595829e-10       9.405628289861e-14      -2.675199470490e-12       0.000000000000e+00       1.142552797838e-11       1.509063355792e-12      -7.588633756055e-15 
   96       3.459520450931e-10       9.611981269994e-14      -2.763388668217e-12       0.000000000000e+00       1.111873432613e-11       1.476865645182e-12      -7.519222121165e-15 
   97       3.500734256775e-10       9.817209047121e-14      -2.851962701457e-12       0.000000000000e+00       1.082279954801e-11       1.445703148568e-12      -7.443378424699e-15 
   98       3.542242090595e-10       1.002111905820e-13      -2.940856198005e-12       0.000000000000e+00       1.053747961379e-11       1.415556553346e-12      -7.362499275286e-15 
   99       3.584040324381e-10       1.022351597067e-13      -3.030002566040e-12       0.000000000000e+00       1.026242136043e-11       1.386395574042e-12      -7.278101843347e-15 
  100       3.626123555037e-10       1.042420172524e-13      -3.119334012087e-12       0.000000000000e+00       9.997158742924e-12       1.358178567809e-12      -7.191826859287e-15 
  101       3.668484534536e-10       1.062297557865e-13      -3.208781558980e-12       0.000000000000e+00       9.741109085164e-12       1.330852149912e-12      -7.105441611671e-15 
  102       3.711114100079e-10       1.081963414640e-13      -3.298275063832e-12       0.000000000000e+00       9.493569330773e-12       1.304350809224e-12      -7.020842945412e-15 
  103       3.754001104251e-10       1.101397144553e-13      -3.387743235998e-12       0.000000000000e+00       9.253712293967e-12       1.278596523721e-12      -6.940060259954e-15 
  104       3.797134730950e-10       1.120578402418e-13      -3.477114232110e-12       0.000000000000e+00       9.020774091844e-12       1.253517118880e-12      -6.864819044596e-15 
  105       3.840511949906e-10       1.139488704727e-13      -3.566317494038e-12       0.000000000000e+00       8.794653352100e-12       1.229104995425e-12      -6.795157878415e-15 
  106       3.884130943642e-10       1.158110047357e-13      -3.655282193858e-12       0.000000000000e+00       8.575386336872e-12       1.205365654951e-12      -6.730629326947e-15 
  107       3.927988768522e-10       1.176424426046e-13      -3.743936702970e-12       0.000000000000e+00       8.362961361126e-12       1.182299489042e-12      -6.670720913014e-15 
