# dimensionless total lensed [l(l+1)/2pi] C_l's
# for l=2 to 2500, i.e. number of multipoles equal to 2499
#
# -> if you prefer output in CAMB/HealPix/LensPix units/order, set 'format' to 'camb' in input file
# -> if you don't want to see such a header, set 'headers' to 'no' in input file
# -> for CMB lensing (phi), these are C_l^phi-phi for the lensing potential.
#    Remember the conversion factors:
#    C_l^dd (deflection) = l(l+1) C_l^phi-phi
#    C_l^gg (shear/convergence) = 1/4 (l(l+1))^2 C_l^phi-phi
#
# 1:l     2:TT                     3:EE                     4:TE                     5:BB                     6:phiphi                 7:TPhi                   8:Ephi               
    2       1.422969353325e-10       4.161707866468e-15       3.794133710154e-13       2.266453388574e-19       8.228452906036e-09       4.314480763111e-10      -1.840050285999e-12 
    3       1.347239381185e-10       5.343560908014e-15       4.237270693406e-13       4.533844529970e-19       5.062556618043e-09       3.069459861455e-10      -1.394940111918e-12 
    4       1.273650806142e-10       4.632115045896e-15       3.945185941073e-13       7.558472701055e-19       3.517600976381e-09       2.326920091757e-10      -9.149127453111e-13 
    5       1.217336906762e-10       3.097397159271e-15       3.342189413163e-13       1.134153661267e-18       2.624629265046e-09       1.838318566907e-10      -5.103211035324e-13 
    6       1.177683480827e-10       1.735253960122e-15       2.672154593659e-13       1.588449147848e-18       2.049778314276e-09       1.495300485246e-10      -2.117258359132e-13 
    7       1.150880952811e-10       9.376925592746e-16       2.077143647220e-13       2.118902216416e-18       1.653544857596e-09       1.243407210253e-10      -2.077171527964e-14 
    8       1.134130930714e-10       6.038549235353e-16       1.619876892101e-13       2.725701280911e-18       1.366639092134e-09       1.052387618115e-10       7.719394792098e-14 
    9       1.124930314779e-10       4.847180072008e-16       1.314046085697e-13       3.409051381598e-18       1.150811527658e-09       9.041559167796e-11       1.052117986316e-13 
   10       1.121014313699e-10       4.144042667755e-16       1.145189451411e-13       4.169170716652e-18       9.835354096104e-10       7.867080095595e-11       8.890047047612e-14 
   11       1.121735482391e-10       3.498841467870e-16       1.084141694162e-13       5.006287105228e-18       8.285452602811e-10       6.949711368771e-11       5.221888373119e-14 
   12       1.125611052213e-10       3.061771405076e-16       1.097346795139e-13       5.920634480460e-18       7.238384868452e-10       6.141315667485e-11       1.272581230542e-14 
   13       1.132111002408e-10       2.945255733183e-16       1.154929138051e-13       6.912449507003e-18       6.378941324446e-10       5.486434574851e-11      -1.755116270402e-14 
   14       1.140702220369e-10       3.073216351544e-16       1.234446811312e-13       7.981968410718e-18       5.663978747325e-10       4.914339850507e-11      -3.426750276005e-14 
   15       1.151277421184e-10       3.328095548950e-16       1.321917111189e-13       9.129424098198e-18       5.062238197652e-10       4.434486004543e-11      -3.748939650144e-14 
   16       1.163111822094e-10       3.682798916448e-16       1.409758627702e-13       1.035504363133e-17       4.550681749201e-10       4.021609957726e-11      -3.107607611232e-14 
   17       1.176401054638e-10       4.192315391682e-16       1.495837632858e-13       1.165904610765e-17       4.111906866997e-10       3.661639079871e-11      -2.016416219648e-14 
   18       1.190531943209e-10       4.911553217230e-16       1.583091879034e-13       1.304164080532e-17       3.731118378882e-10       3.347346339843e-11      -9.646080476214e-15 
   19       1.205613945787e-10       5.844291018422e-16       1.673857435350e-13       1.450302684210e-17       3.402268932087e-10       3.074460730316e-11      -2.158110474145e-15 
   20       1.221535522287e-10       6.970997290658e-16       1.769695740885e-13       1.604339046063e-17       3.112665968669e-10       2.832648711152e-11       5.409629868574e-16 
   21       1.238325256808e-10       8.285369947976e-16       1.870586303126e-13       1.766290744122e-17       2.857753821098e-10       2.617440011586e-11      -1.023385336305e-15 
   22       1.255739869206e-10       9.782549716374e-16       1.975159399328e-13       1.936174012717e-17       2.631429873974e-10       2.423070805236e-11      -5.143090924944e-15 
   23       1.273807872922e-10       1.146484479101e-15       2.079913059874e-13       2.114004123913e-17       2.430578597703e-10       2.248514732540e-11      -1.008536376632e-14 
   24       1.292431713191e-10       1.333483823504e-15       2.180251704658e-13       2.299795084831e-17       2.250552334862e-10       2.092115224259e-11      -1.398861210879e-14 
   25       1.311649181087e-10       1.539285002481e-15       2.273323582886e-13       2.493560183569e-17       2.089230252655e-10       1.952279858455e-11      -1.599978255567e-14 
   26       1.331372652595e-10       1.764082587107e-15       2.356821417967e-13       2.695311624218e-17       1.943689088938e-10       1.825983594166e-11      -1.575350300899e-14 
   27       1.351528818269e-10       2.009871176153e-15       2.429525715736e-13       2.905061051571e-17       1.812180179259e-10       1.711272512790e-11      -1.384639763768e-14 
   28       1.371962354970e-10       2.279196482747e-15       2.490868125397e-13       3.122819301809e-17       1.692433496813e-10       1.605840915924e-11      -1.126870412579e-14 
   29       1.392765627223e-10       2.573543795091e-15       2.541504143472e-13       3.348597258571e-17       1.583836158141e-10       1.509528395909e-11      -8.678568616936e-15 
   30       1.413995578012e-10       2.894065923176e-15       2.582868503668e-13       3.582405138843e-17       1.485220764972e-10       1.422021236246e-11      -6.749630582299e-15 
   31       1.435601990362e-10       3.241853794936e-15       2.616446846073e-13       3.824252490422e-17       1.394574054074e-10       1.342174168136e-11      -6.107295141611e-15 
   32       1.457612486976e-10       3.617830475447e-15       2.641810837167e-13       4.074149271892e-17       1.311426858502e-10       1.269128320961e-11      -6.583285360088e-15 
   33       1.479989509458e-10       4.022804087882e-15       2.657839362627e-13       4.332105156551e-17       1.235190106057e-10       1.201443912902e-11      -7.669165670519e-15 
   34       1.502626036211e-10       4.457530040933e-15       2.663234115879e-13       4.598129402817e-17       1.164795603507e-10       1.137373522368e-11      -8.794557951330e-15 
   35       1.525548285382e-10       4.922862024619e-15       2.656610775188e-13       4.872231388966e-17       1.099882307813e-10       1.077131484554e-11      -9.668548630787e-15 
   36       1.548766457717e-10       5.419644891454e-15       2.636412675304e-13       5.154420276960e-17       1.039928716684e-10       1.021347591520e-11      -1.004889695081e-14 
   37       1.572246041801e-10       5.948676686613e-15       2.601211338834e-13       5.444704832058e-17       9.841537090526e-11       9.703684249578e-12      -9.737846206829e-15 
   38       1.596022646030e-10       6.510729069584e-15       2.550872502261e-13       5.743093250915e-17       9.324128131649e-11       9.239972004212e-12      -8.885702965100e-15 
   39       1.620113418166e-10       7.106527174072e-15       2.485781488734e-13       6.049593289792e-17       8.845415803618e-11       8.816182202297e-12      -7.791225093059e-15 
   40       1.644478766217e-10       7.736739498304e-15       2.406548479962e-13       6.364212318551e-17       8.400829700674e-11       8.422262174889e-12      -6.826442634261e-15 
   41       1.669053946146e-10       8.401996640279e-15       2.313768412710e-13       6.686957042089e-17       7.984464974992e-11       8.047298998457e-12      -6.339191698858e-15 
   42       1.693870356029e-10       9.102963566858e-15       2.207174035466e-13       7.017832540905e-17       7.595093335836e-11       7.690570403947e-12      -6.311175337245e-15 
   43       1.718963810078e-10       9.840284759484e-15       2.086229988549e-13       7.356842928475e-17       7.231679294444e-11       7.353561862065e-12      -6.596558735031e-15 
   44       1.744337211911e-10       1.061456182357e-14       1.950358888061e-13       7.703991595743e-17       6.891576468939e-11       7.036844362650e-12      -7.012312549400e-15 
   45       1.769974474007e-10       1.142634524433e-14       1.798994294954e-13       8.059280843929e-17       6.571472297497e-11       6.740198442282e-12      -7.379133104837e-15 
   46       1.795895062607e-10       1.227611167165e-14       1.631767674518e-13       8.422710684339e-17       6.270861135940e-11       6.463228908018e-12      -7.664203316067e-15 
   47       1.822110111723e-10       1.316427626651e-14       1.448370712139e-13       8.794279656428e-17       5.989391364024e-11       6.204790659529e-12      -7.877204974541e-15 
   48       1.848604332138e-10       1.409119585911e-14       1.248502705836e-13       9.173985116956e-17       5.725817881024e-11       5.962726077121e-12      -8.030994466310e-15 
   49       1.875333684019e-10       1.505716649193e-14       1.031869950148e-13       9.561823205922e-17       5.477935672542e-11       5.733792811133e-12      -8.141795031306e-15 
   50       1.902248446557e-10       1.606242085373e-14       7.981813863155e-14       9.957788803928e-17       5.243243553616e-11       5.514591689710e-12      -8.228358188474e-15 
   51       1.929375208759e-10       1.710712546063e-14       5.471355902534e-14       1.036187546963e-16       5.021301920808e-11       5.304814901231e-12      -8.308733625667e-15 
   52       1.956753111091e-10       1.819137846289e-14       2.784291876288e-14       1.077407542644e-16       4.811900151429e-11       5.104754673825e-12      -8.402954864831e-15 
   53       1.984409288209e-10       1.931520728337e-14      -8.240494148122e-16       1.119437953594e-16       4.614351051347e-11       4.914355667036e-12      -8.534133804360e-15 
   54       2.012357736719e-10       2.047856615551e-14      -3.131762177366e-14       1.162277726343e-16       4.427458783028e-11       4.733189825610e-12      -8.728604468536e-15 
   55       2.040604132952e-10       2.168137156423e-14      -6.366341395917e-14       1.205925745139e-16       4.249883462843e-11       4.560672046739e-12      -9.007128683063e-15 
   56       2.069164281658e-10       2.292362451950e-14      -9.786683228048e-14       1.250381094381e-16       4.081414491544e-11       4.396827529024e-12      -9.355625435841e-15 
   57       2.098048267164e-10       2.420531434562e-14      -1.339248984836e-13       1.295642855344e-16       3.921957369870e-11       4.241671003906e-12      -9.747421849456e-15 
   58       2.127254024077e-10       2.552638247560e-14      -1.718305566053e-13       1.341710030804e-16       3.771148487945e-11       4.094967202939e-12      -1.015135413798e-14 
   59       2.156766436873e-10       2.688672146582e-14      -2.115725671363e-13       1.388581544739e-16       3.628338507965e-11       3.956215093915e-12      -1.053156311976e-14 
   60       2.186556439473e-10       2.828617401068e-14      -2.531354011835e-13       1.436256242030e-16       3.492575746898e-11       3.824632117003e-12      -1.084728973022e-14 
   61       2.216594001327e-10       2.972446775501e-14      -2.965018013258e-13       1.484733039707e-16       3.362870304754e-11       3.699371889953e-12      -1.106227039293e-14 
   62       2.246892528856e-10       3.120100486212e-14      -3.416613753164e-13       1.534011421042e-16       3.239093322175e-11       3.580270089242e-12      -1.117585010294e-14 
   63       2.277472877941e-10       3.271502324856e-14      -3.886037522978e-13       1.584091052333e-16       3.121251001766e-11       3.467238778626e-12      -1.119852192533e-14 
   64       2.308349896169e-10       3.426565365584e-14      -4.373160655177e-13       1.634971645568e-16       3.009214117223e-11       3.360039523050e-12      -1.114304151499e-14 
   65       2.339531963022e-10       3.585191662800e-14      -4.877829311043e-13       1.686652962929e-16       2.902710303870e-11       3.258275032581e-12      -1.102452722574e-14 
   66       2.371020530067e-10       3.747271948919e-14      -5.399864268406e-13       1.739134821310e-16       2.801316349201e-11       3.161380806333e-12      -1.086056021928e-14 
   67       2.402809661149e-10       3.912685332120e-14      -5.939060709393e-13       1.792417096817e-16       2.704450483422e-11       3.068616776403e-12      -1.067128457433e-14 
   68       2.434891933403e-10       4.081310894650e-14      -6.495198978969e-13       1.846499811694e-16       2.611527671822e-11       2.979257511164e-12      -1.047556658923e-14 
   69       2.467278556586e-10       4.253065892315e-14      -7.068079866414e-13       1.901383405463e-16       2.522479264174e-11       2.893226257147e-12      -1.027834522358e-14 
   70       2.499982523162e-10       4.427874787813e-14      -7.657496124351e-13       1.957068527072e-16       2.437325274169e-11       2.810574949821e-12      -1.008088658663e-14 
   71       2.533012316376e-10       4.605658037124e-14      -8.263222197594e-13       2.013555963849e-16       2.356017216872e-11       2.731293802448e-12      -9.884497292111e-15 
   72       2.566371613127e-10       4.786332091631e-14      -8.885014291482e-13       2.070846648116e-16       2.278434568106e-11       2.655308028260e-12      -9.690523779332e-15 
   73       2.600058986837e-10       4.969809400239e-14      -9.522610440212e-13       2.128941663808e-16       2.204381223840e-11       2.582474562632e-12      -9.500351634347e-15 
   74       2.634067610321e-10       5.155998411491e-14      -1.017573057516e-12       2.187842253089e-16       2.133581959576e-11       2.512578785256e-12      -9.315404911115e-15 
   75       2.668384958659e-10       5.344803575690e-14      -1.084407659324e-12       2.247549822968e-16       2.065678889731e-11       2.445331242316e-12      -9.137145452647e-15 
   76       2.702998764215e-10       5.536119908978e-14      -1.152732691453e-12       2.308065883463e-16       2.000320260752e-11       2.380444086377e-12      -8.966987796202e-15 
   77       2.737916792189e-10       5.729815536478e-14      -1.222511885856e-12       2.369391834439e-16       1.937453350361e-11       2.317883734387e-12      -8.806027474786e-15 
   78       2.773150148164e-10       5.925745954872e-14      -1.293706316350e-12       2.431529151738e-16       1.877078795471e-11       2.257658541991e-12      -8.655261706609e-15 
   79       2.808707179681e-10       6.123759080405e-14      -1.366274916773e-12       2.494479457320e-16       1.819161376221e-11       2.199741556602e-12      -8.515667044777e-15 
   80       2.844593307318e-10       6.323695139499e-14      -1.440174476519e-12       2.558244524469e-16       1.763628368740e-11       2.144068874250e-12      -8.388196967434e-15 
   81       2.880810855762e-10       6.525386559358e-14      -1.515359636071e-12       2.622826283011e-16       1.710367897915e-11       2.090537996435e-12      -8.273779467897e-15 
   82       2.917358884889e-10       6.728657858576e-14      -1.591782882536e-12       2.688226824529e-16       1.659227290147e-11       2.039006186973e-12      -8.173314644789e-15 
   83       2.954233020838e-10       6.933325537743e-14      -1.669394545175e-12       2.754448407570e-16       1.610011426123e-11       1.989288828855e-12      -8.087672292175e-15 
   84       2.991428254291e-10       7.139204680986e-14      -1.748143506733e-12       2.821493425716e-16       1.562530134098e-11       1.941205586595e-12      -8.017273793564e-15 
   85       3.028948238348e-10       7.346130257650e-14      -1.827979482713e-12       2.889364294262e-16       1.516753005284e-11       1.894731285417e-12      -7.960763443413e-15 
   86       3.066797229498e-10       7.553939167837e-14      -1.908851113523e-12       2.958063554224e-16       1.472677342776e-11       1.849867148307e-12      -7.916111416378e-15 
   87       3.104977140157e-10       7.762463848798e-14      -1.990705289730e-12       3.027593912333e-16       1.430280592059e-11       1.806594387093e-12      -7.881000621365e-15 
   88       3.143487419615e-10       7.971532278333e-14      -2.073487159619e-12       3.097958245631e-16       1.389519517980e-11       1.764873362747e-12      -7.852817305176e-15 
   89       3.182324934985e-10       8.180967978183e-14      -2.157140136761e-12       3.169159606053e-16       1.350329381720e-11       1.724642745689e-12      -7.828641656157e-15 
   90       3.221483852140e-10       8.390590017430e-14      -2.241605907572e-12       3.241201225023e-16       1.312623117775e-11       1.685818676097e-12      -7.805238407843e-15 
   91       3.260955516664e-10       8.600213015890e-14      -2.326824438878e-12       3.314086518036e-16       1.276290510920e-11       1.648293924205e-12      -7.779047442603e-15 
   92       3.300728334797e-10       8.809647147512e-14      -2.412733985480e-12       3.387819089254e-16       1.241197373195e-11       1.611937050611e-12      -7.746174395286e-15 
   93       3.340791237925e-10       9.018701062030e-14      -2.499271865028e-12       3.462402809007e-16       1.207217365679e-11       1.576624650723e-12      -7.703284423725e-15 
   94       3.381144930709e-10       9.227191145202e-14      -2.586376899534e-12       3.537842049687e-16       1.174334726222e-11       1.542345459382e-12      -7.650457696494e-15 
   95       3.421792122431e-10       9.434933664071e-14      -2.673987356757e-12       3.614141493986e-16       1.142555542171e-11       1.509110423921e-12      -7.588747996119e-15 
   96       3.462734025244e-10       9.641742015677e-14      -2.762040233463e-12       3.691306070650e-16       1.111876112319e-11       1.476920634738e-12      -7.519320779500e-15 
   97       3.503970284318e-10       9.847426770509e-14      -2.850471273516e-12       3.769340960073e-16       1.082282571988e-11       1.445766939741e-12      -7.443456179179e-15 
   98       3.545498907965e-10       1.005179571597e-13      -2.939214985978e-12       3.848251599883e-16       1.053750518113e-11       1.415629558792e-12      -7.362552004609e-15 
   99       3.587316197785e-10       1.025465389981e-13      -3.028204663206e-12       3.928043690537e-16       1.026244634324e-11       1.386477698155e-12      -7.278126743425e-15 
  100       3.629416678794e-10       1.045580367361e-13      -3.117372398943e-12       4.008723200904e-16       9.997183160356e-12       1.358269164935e-12      -7.191822562708e-15 
  101       3.671793029563e-10       1.065504473621e-13      -3.206649106418e-12       4.090296373863e-16       9.741132955257e-12       1.330949981532e-12      -7.105408310264e-15 
  102       3.714436012353e-10       1.085217417719e-13      -3.295964536445e-12       4.172769731886e-16       9.493592670225e-12       1.304454000077e-12      -7.020782515882e-15 
  103       3.757334403253e-10       1.104698652028e-13      -3.385247295510e-12       4.256150082632e-16       9.253735117879e-12       1.278702516884e-12      -6.939976392613e-15 
  104       3.800477319269e-10       1.123927886349e-13      -3.474425454452e-12       4.340444331579e-16       9.020796413843e-12       1.253622811230e-12      -6.864716986309e-15 
  105       3.843861708098e-10       1.142886699633e-13      -3.563428429145e-12       4.425658879064e-16       8.794675185659e-12       1.229207444246e-12      -6.795042952230e-15 
  106       3.887485744578e-10       1.161557155096e-13      -3.652185388786e-12       4.511800151831e-16       8.575407695582e-12       1.205462288950e-12      -6.730506514773e-15 
  107       3.931346481079e-10       1.179921319819e-13      -3.740624712291e-12       4.598874792147e-16       8.362982258596e-12       1.182388145772e-12      -6.670594811234e-15 
