# dimensionless total lensed [l(l+1)/2pi] C_l's
# for l=2 to 2500, i.e. number of multipoles equal to 2499
#
# -> if you prefer output in CAMB/HealPix/LensPix units/order, set 'format' to 'camb' in input file
# -> if you don't want to see such a header, set 'headers' to 'no' in input file
# -> for CMB lensing (phi), these are C_l^phi-phi for the lensing potential.
#    Remember the conversion factors:
#    C_l^dd (deflection) = l(l+1) C_l^phi-phi
#    C_l^gg (shear/convergence) = 1/4 (l(l+1))^2 C_l^phi-phi
#
# 1:l     2:TT                     3:EE                     4:TE                     5:BB                     6:phiphi                 7:TPhi                   8:Ephi               
    2       1.423020826052e-10       4.161711100727e-15       3.794384745614e-13       2.266450200519e-19       8.228445493406e-09       4.314346379147e-10      -1.840049453390e-12 
    3       1.347287059507e-10       5.343564322238e-15       4.237530206930e-13       4.533838131755e-19       5.062547637742e-09       3.069372551354e-10      -1.394939373005e-12 
    4       1.273693468497e-10       4.632117709943e-15       3.945412673066e-13       7.558461989633e-19       3.517594730318e-09       2.326856029290e-10      -9.149121243909e-13 
    5       1.217374784666e-10       3.097398815701e-15       3.342365927456e-13       1.134152045932e-18       2.624624829049e-09       1.838268492493e-10      -5.103206623399e-13 
    6       1.177717055689e-10       1.735254854039e-15       2.672278700318e-13       1.588446872551e-18       2.049774886549e-09       1.495260105445e-10      -2.117255618486e-13 
    7       1.150910827711e-10       9.376930439042e-16       2.077222121240e-13       2.118899162341e-18       1.653542143999e-09       1.243373247220e-10      -2.077155297654e-14 
    8       1.134157503485e-10       6.038553290524e-16       1.619920534420e-13       2.725697326249e-18       1.366636830119e-09       1.052357852172e-10       7.719402357480e-14 
    9       1.124953957237e-10       4.847185407995e-16       1.314066588319e-13       3.409046401801e-18       1.150809548238e-09       9.041298978883e-11       1.052117896253e-13 
   10       1.121035116979e-10       4.144049027022e-16       1.145198153930e-13       4.169164584881e-18       9.835336250679e-10       7.866856091714e-11       8.890041309873e-14 
   11       1.121753708136e-10       3.498847386396e-16       1.084146831686e-13       5.006279692987e-18       8.285438596056e-10       6.949511850724e-11       5.221885971174e-14 
   12       1.125626904782e-10       3.061777156391e-16       1.097353299310e-13       5.920625658379e-18       7.238372538906e-10       6.141128769650e-11       1.272587300087e-14 
   13       1.132124910806e-10       2.945261289856e-16       1.154940276526e-13       6.912439145741e-18       6.378930378979e-10       5.486264499362e-11      -1.755103243416e-14 
   14       1.140714178989e-10       3.073220732212e-16       1.234462777228e-13       7.981956381943e-18       5.663968959980e-10       4.914191669083e-11      -3.426736645497e-14 
   15       1.151287422215e-10       3.328101967317e-16       1.321937468309e-13       9.129410275591e-18       5.062229390072e-10       4.434351362243e-11      -3.748931226122e-14 
   16       1.163120109240e-10       3.682811559822e-16       1.409783249582e-13       1.035502789157e-17       4.550673778911e-10       4.021478249349e-11      -3.107605237350e-14 
   17       1.176407758978e-10       4.192332042194e-16       1.495865486322e-13       1.165902833133e-17       4.111899618090e-10       3.661514738435e-11      -2.016417438199e-14 
   18       1.190537344891e-10       4.911570969471e-16       1.583121008671e-13       1.304162087773e-17       3.731111759472e-10       3.347236691789e-11      -9.646118554568e-15 
   19       1.205618178530e-10       5.844309713206e-16       1.673887111968e-13       1.450300465377e-17       3.402262858198e-10       3.074363848997e-11      -2.158172253301e-15 
   20       1.221538446255e-10       6.971019750046e-16       1.769727084117e-13       1.604336590790e-17       3.112660377609e-10       2.832552589393e-11       5.408808400355e-16 
   21       1.238326910285e-10       8.285397361261e-16       1.870619729957e-13       1.766288042620e-17       2.857748657190e-10       2.617342419795e-11      -1.023462836985e-15 
   22       1.255740576067e-10       9.782580464853e-16       1.975193908181e-13       1.936171055785e-17       2.631425090907e-10       2.422983887476e-11      -5.143116893724e-15 
   23       1.273807812992e-10       1.146487897084e-15       2.079948221254e-13       2.114000902878e-17       2.430574154025e-10       2.248440795739e-11      -1.008532112722e-14 
   24       1.292430802124e-10       1.333487869400e-15       2.180288172803e-13       2.299791591509e-17       2.250548196717e-10       2.092041260615e-11      -1.398853124078e-14 
   25       1.311647420940e-10       1.539289795012e-15       2.273361525815e-13       2.493556410153e-17       2.089226389519e-10       1.952202033138e-11      -1.599970751264e-14 
   26       1.331370211031e-10       1.764087941388e-15       2.356860128964e-13       2.695307563186e-17       1.943685474977e-10       1.825913020129e-11      -1.575347434326e-14 
   27       1.351525765211e-10       2.009876832057e-15       2.429564806461e-13       2.905056695541e-17       1.812176791400e-10       1.711213977642e-11      -1.384642423794e-14 
   28       1.371958598901e-10       2.279202221521e-15       2.490907854508e-13       3.122814643404e-17       1.692430315664e-10       1.605787160982e-11      -1.126875718533e-14 
   29       1.392761125094e-10       2.573549632582e-15       2.541544775414e-13       3.348592290262e-17       1.583833165218e-10       1.509472503842e-11      -8.678621826249e-15 
   30       1.413990420606e-10       2.894072229181e-15       2.582910068094e-13       3.582399852792e-17       1.485217943668e-10       1.421961391290e-11      -6.749676010194e-15 
   31       1.435596392076e-10       3.241861256235e-15       2.616489130456e-13       3.824246878329e-17       1.394571391118e-10       1.342113814298e-11      -6.107343153388e-15 
   32       1.457606618548e-10       3.617839609198e-15       2.641853621474e-13       4.074143324893e-17       1.311424341349e-10       1.269071127005e-11      -6.583343362708e-15 
   33       1.479983426358e-10       4.022815027961e-15       2.657882502576e-13       4.332098865070e-17       1.235187723117e-10       1.201391981675e-11      -7.669229984903e-15 
   34       1.502619678228e-10       4.457542537533e-15       2.663277548618e-13       4.598122756425e-17       1.164793344979e-10       1.137327230180e-11      -8.794614693890e-15 
   35       1.525541591579e-10       4.922875808781e-15       2.656654466933e-13       4.872224376398e-17       1.099880164461e-10       1.077090454963e-11      -9.668587628842e-15 
   36       1.548759406198e-10       5.419659802157e-15       2.636456607396e-13       5.154412886011e-17       1.039926680118e-10       1.021310908826e-11      -1.004891729602e-14 
   37       1.572238652882e-10       5.948692695629e-15       2.601255493492e-13       5.444697049526e-17       9.841517721861e-11       9.703346984010e-12      -9.737855943220e-15 
   38       1.596014961633e-10       6.510746276753e-15       2.550916794877e-13       5.743085062835e-17       9.324109691204e-11       9.239651592932e-12      -8.885709882271e-15 
   39       1.620105497697e-10       7.106545825793e-15       2.485825734484e-13       6.049584681468e-17       8.845398225137e-11       8.815869591300e-12      -7.791233500654e-15 
   40       1.644470688970e-10       7.736760016187e-15       2.406592373023e-13       6.364203274509e-17       8.400812925595e-11       8.421953095336e-12      -6.826452439104e-15 
   41       1.669045806080e-10       8.402019590181e-15       2.313811558470e-13       6.686947546136e-17       7.984448954832e-11       8.046994041697e-12      -6.339198739981e-15 
   42       1.693862230372e-10       9.102989421558e-15       2.207216165610e-13       7.017822576548e-17       7.595078024032e-11       7.690271322529e-12      -6.311176134240e-15 
   43       1.718955745789e-10       9.840313803445e-15       2.086271050604e-13       7.356832479097e-17       7.231664646074e-11       7.353270548535e-12      -6.596552156705e-15 
   44       1.744329218755e-10       1.061459411080e-14       1.950399088150e-13       7.703980644688e-17       6.891562443612e-11       7.036562858531e-12      -7.012300316237e-15 
   45       1.769966524595e-10       1.142638060353e-14       1.799034062748e-13       8.059269374645e-17       6.571458860558e-11       6.739928798924e-12      -7.379119463376e-15 
   46       1.795887116779e-10       1.227614987592e-14       1.631807361348e-13       8.422698680693e-17       6.270848253469e-11       6.462972549403e-12      -7.664191864559e-15 
   47       1.822102123170e-10       1.316431708349e-14       1.448410480277e-13       8.794267102915e-17       5.989379002582e-11       6.204548094848e-12      -7.877197535683e-15 
   48       1.848596248292e-10       1.409123905592e-14       1.248542488908e-13       9.173971998866e-17       5.725806009269e-11       5.962496740952e-12      -8.030990724064e-15 
   49       1.875325445951e-10       1.505721184051e-14       1.031909411340e-13       9.561809509525e-17       5.477924262977e-11       5.733574895428e-12      -8.141792147732e-15 
   50       1.902239995717e-10       1.606246814630e-14       7.982199521413e-14       9.957774516588e-17       5.243232583126e-11       5.514382220633e-12      -8.228351209521e-15 
   51       1.929366516344e-10       1.710717455772e-14       5.471727402949e-14       1.036186057970e-16       5.021291366960e-11       5.304610647869e-12      -8.308718552658e-15 
   52       1.956744190950e-10       1.819142931825e-14       2.784645539666e-14       1.077405992333e-16       4.811889992070e-11       5.104552436685e-12      -8.402929749289e-15 
   53       1.984400203793e-10       1.931525996081e-14      -8.207097786802e-16       1.119436341026e-16       4.614341265478e-11       4.914152336873e-12      -8.534099114790e-15 
   54       2.012348608368e-10       2.047862084650e-14      -3.131447653790e-14       1.162276050716e-16       4.427449351746e-11       4.732982445984e-12      -8.728563475297e-15 
   55       2.040595129363e-10       2.168142857728e-14      -6.366044151130e-14       1.205924005780e-16       4.249874369603e-11       4.560458040450e-12      -9.007087119066e-15 
   56       2.069155558533e-10       2.292368417451e-14      -9.786401187498e-14       1.250379290677e-16       4.081405720104e-11       4.396605455354e-12      -9.355588732642e-15 
   57       2.098039946145e-10       2.420537694107e-14      -1.339222165875e-13       1.295640986716e-16       3.921948904085e-11       4.241440923439e-12      -9.747394227311e-15 
   58       2.127246186393e-10       2.552644828252e-14      -1.718280082789e-13       1.341708096710e-16       3.771140312266e-11       4.094730903516e-12      -1.015133837478e-14 
   59       2.156759116692e-10       2.688679072147e-14      -2.115701574795e-13       1.388579544667e-16       3.628330607972e-11       3.955976326560e-12      -1.053156030916e-14 
   60       2.186549616960e-10       2.828624691188e-14      -2.531331468483e-13       1.436254175502e-16       3.492568109866e-11       3.824396841808e-12      -1.084729902888e-14 
   61       2.216587607500e-10       2.972454445627e-14      -2.964997290368e-13       1.484730906255e-16       3.362862919726e-11       3.699147841474e-12      -1.106228919711e-14 
   62       2.246886489592e-10       3.120108548985e-14      -3.416595104822e-13       1.534009220136e-16       3.239086178384e-11       3.580064099410e-12      -1.117587565002e-14 
   63       2.277467127135e-10       3.271510790233e-14      -3.886021154141e-13       1.584088783349e-16       3.121244088395e-11       3.467055854183e-12      -1.119855177244e-14 
   64       2.308344377664e-10       3.426574240467e-14      -4.373146714016e-13       1.634969307768e-16       3.009207423660e-11       3.359882557310e-12      -1.114307360885e-14 
   65       2.339526632634e-10       3.585200950659e-14      -4.877817880971e-13       1.686650555449e-16       2.902703819983e-11       3.258144505247e-12      -1.102455997559e-14 
   66       2.371015357691e-10       3.747281649396e-14      -5.399855359803e-13       1.739132343136e-16       2.801310065627e-11       3.161274471372e-12      -1.086059257299e-14 
   67       2.402804632958e-10       3.912695440624e-14      -5.939054251013e-13       1.792414546771e-16       2.704444391868e-11       3.068529337967e-12      -1.067131609757e-14 
   68       2.434887051165e-10       4.081321403179e-14      -6.495194832170e-13       1.846497188432e-16       2.611521765074e-11       2.979181039484e-12      -1.047559740481e-14 
   69       2.467273827470e-10       4.253076794323e-14      -7.068077913898e-13       1.901380707541e-16       2.522473535114e-11       2.893153025112e-12      -1.027837549102e-14 
   70       2.499977957276e-10       4.427886079832e-14      -7.657496299002e-13       1.957065752961e-16       2.437319715609e-11       2.810498320160e-12      -1.008091635352e-14 
   71       2.533007927119e-10       4.605669719227e-14      -8.263224489800e-13       2.013553111927e-16       2.356011821682e-11       2.731208413558e-12      -9.884526479755e-15 
   72       2.566367417556e-10       4.786344167911e-14      -8.885018756735e-13       2.070843716662e-16       2.278429329359e-11       2.655209987321e-12      -9.690552167840e-15 
   73       2.600055006045e-10       4.969821879306e-14      -9.522617206987e-13       2.128938650993e-16       2.204376134955e-11       2.582361646006e-12      -9.500378847241e-15 
   74       2.634063869831e-10       5.156011306991e-14      -1.017573985309e-12       2.187839156970e-16       2.133577014470e-11       2.512450646174e-12      -9.315430399379e-15 
   75       2.668381488827e-10       5.344816906837e-14      -1.084408868152e-12       2.247546641483e-16       2.065674082981e-11       2.445189625849e-12      -9.137168478264e-15 
   76       2.702995598421e-10       5.536133699920e-14      -1.152734219192e-12       2.308062614455e-16       2.000315587584e-11       2.380292580733e-12      -8.967007459659e-15 
   77       2.737913957890e-10       5.729829811899e-14      -1.222513771325e-12       2.369388475792e-16       1.937448806082e-11       2.317726017452e-12      -8.806042884938e-15 
   78       2.773147663803e-10       5.925760738698e-14      -1.293708597256e-12       2.431525701426e-16       1.877074375367e-11       2.257497870188e-12      -8.655272033306e-15 
   79       2.808705053671e-10       6.123774395630e-14      -1.366277629429e-12       2.494475913417e-16       1.819157075628e-11       2.199580698034e-12      -8.515671529677e-15 
   80       2.844591536996e-10       6.323711008005e-14      -1.440177655550e-12       2.558240885169e-16       1.763624183123e-11       2.143910039476e-12      -8.388194935196e-15 
   81       2.880809426315e-10       6.525403001723e-14      -1.515363314109e-12       2.622822546642e-16       1.710363822939e-11       2.090382766864e-12      -8.273770337762e-15 
   82       2.917357768238e-10       6.728674893879e-14      -1.591787089903e-12       2.688222989567e-16       1.659223321764e-11       2.038855440903e-12      -8.173297942548e-15 
   83       2.954232174497e-10       6.933343183366e-14      -1.669399309559e-12       2.754444472658e-16       1.610007560653e-11       1.989142665121e-12      -8.087647662524e-15 
   84       2.991427623906e-10       7.139222952139e-14      -1.748148851585e-12       2.821489389655e-16       1.562526368220e-11       1.941063401005e-12      -8.017241019853e-15 
   85       3.028947772046e-10       7.346149166037e-14      -1.827985421580e-12       2.889360155937e-16       1.516749335722e-11       1.894592339799e-12      -7.960722490178e-15 
   86       3.066796882332e-10       7.553958721031e-14      -1.908857647753e-12       2.958059312582e-16       1.472673766249e-11       1.849730724634e-12      -7.916062453590e-15 
   87       3.104976875045e-10       7.762484049856e-14      -1.990712407344e-12       3.027589566392e-16       1.430277105316e-11       1.806459793959e-12      -7.880944042503e-15 
   88       3.143487208303e-10       7.971553125394e-14      -2.073494834163e-12       3.097953794480e-16       1.389516117844e-11       1.764739942078e-12      -7.852753745799e-15 
   89       3.182324759041e-10       8.180989464066e-14      -2.157148326115e-12       3.169155048864e-16       1.350326065133e-11       1.724509879694e-12      -7.828572012981e-15 
   90       3.221483703982e-10       8.390612129212e-14      -2.241614552736e-12       3.241196561050e-16       1.312619881841e-11       1.685685794445e-12      -7.805163858323e-15 
   91       3.260955400615e-10       8.600235734478e-14      -2.326833462723e-12       3.314081746624e-16       1.276287352953e-11       1.648160511448e-12      -7.778969465015e-15 
   92       3.300728268167e-10       8.809670447202e-14      -2.412743291462e-12       3.387814209843e-16       1.241194290765e-11       1.611802653835e-12      -7.746094789319e-15 
   93       3.340791250360e-10       9.018724912424e-14      -2.499281342797e-12       3.462397821101e-16       1.207214356602e-11       1.576488901067e-12      -7.703205245583e-15 
   94       3.381145057955e-10       9.227215520621e-14      -2.586386452438e-12       3.537836952697e-16       1.174331788334e-11       1.542208137017e-12      -7.650380921753e-15 
   95       3.421792404886e-10       9.434958546585e-14      -2.673996910697e-12       3.614136287179e-16       1.142552673290e-11       1.508971486571e-12      -7.588675414629e-15 
   96       3.462734508224e-10       9.641767395889e-14      -2.762049739187e-12       3.691300753136e-16       1.111873310262e-11       1.476780233571e-12      -7.519253971954e-15 
   97       3.503971018313e-10       9.847452648361e-14      -2.850480708975e-12       3.769335530790e-16       1.082279834594e-11       1.445625435685e-12      -7.443396493006e-15 
   98       3.545499948913e-10       1.005182210156e-13      -2.939224358748e-12       3.848246057580e-16       1.053747843262e-11       1.415487539276e-12      -7.362500529193e-15 
   99       3.587317607339e-10       1.025468081426e-13      -3.028214012971e-12       3.928038033759e-16       1.026242019966e-11       1.386335994264e-12      -7.278084284640e-15 
  100       3.629418524608e-10       1.045583114991e-13      -3.117381800041e-12       4.008717427977e-16       9.997157602066e-12       1.358128869001e-12      -7.191789616788e-15 
  101       3.671795385573e-10       1.065507282013e-13      -3.206658670454e-12       4.090290482876e-16       9.741107963769e-12       1.330812465135e-12      -7.105385036982e-15 
  102       3.714438959071e-10       1.085220292818e-13      -3.295974414957e-12       4.172763720675e-16       9.493568228437e-12       1.304320932479e-12      -7.020768711068e-15 
  103       3.757338028060e-10       1.104701601242e-13      -3.385257682713e-12       4.256143948761e-16       9.253711210337e-12       1.278575883880e-12      -6.939971459981e-15 
  104       3.800481714014e-10       1.123930918241e-13      -3.474436578500e-12       4.340438072384e-16       9.020773026612e-12       1.253504826792e-12      -6.864719986511e-15 
  105       3.843866958162e-10       1.142889822368e-13      -3.563440507085e-12       4.425652491885e-16       8.794652304958e-12       1.229100123141e-12      -6.795052896903e-15 
  106       3.887491925325e-10       1.161560375965e-13      -3.652198613014e-12       4.511793634080e-16       8.575385307502e-12       1.205367313166e-12      -6.730522447575e-15 
  107       3.931353656883e-10       1.179924645154e-13      -3.740639248043e-12       4.598868141317e-16       8.362960349201e-12       1.182306833727e-12      -6.670615814124e-15 
