# dimensionless total [l(l+1)/2pi] C_l's
# for l=2 to 3000, i.e. number of multipoles equal to 2999
#
# -> if you prefer output in CAMB/HealPix/LensPix units/order, set 'format' to 'camb' in input file
# -> if you don't want to see such a header, set 'headers' to 'no' in input file
# -> for CMB lensing (phi), these are C_l^phi-phi for the lensing potential.
#    Remember the conversion factors:
#    C_l^dd (deflection) = l(l+1) C_l^phi-phi
#    C_l^gg (shear/convergence) = 1/4 (l(l+1))^2 C_l^phi-phi
#
# 1:l     2:TT                     3:EE                     4:TE                     5:BB                     6:phiphi                 7:TPhi                   8:Ephi               
    2       1.422962702352e-10       4.161412953777e-15       3.794090149668e-13       0.000000000000e+00       8.228281736950e-09       4.314490269507e-10      -1.840039235151e-12 
    3       1.347228151955e-10       5.343021555578e-15       4.237233527392e-13       0.000000000000e+00       5.062588263325e-09       3.069465330525e-10      -1.394928418744e-12 
    4       1.273633806294e-10       4.631281124685e-15       3.945151263621e-13       0.000000000000e+00       3.517620917379e-09       2.326919918552e-10      -9.149044094940e-13 
    5       1.217312570598e-10       3.096209558337e-15       3.342160308313e-13       0.000000000000e+00       2.624634896640e-09       1.838317245521e-10      -5.103163529568e-13 
    6       1.177650444885e-10       1.733636119706e-15       2.672133768773e-13       0.000000000000e+00       2.049779720072e-09       1.495298957886e-10      -2.117238519317e-13 
    7       1.150837694827e-10       9.355588262662e-16       2.077131895465e-13       0.000000000000e+00       1.653543156296e-09       1.243405436729e-10      -2.077151843580e-14 
    8       1.134076166244e-10       6.011205718173e-16       1.619873770282e-13       0.000000000000e+00       1.366637514154e-09       1.052387272764e-10       7.719322214793e-14 
    9       1.124862626534e-10       4.813024769273e-16       1.314050957788e-13       0.000000000000e+00       1.150811902780e-09       9.041575751938e-11       1.052107842100e-13 
   10       1.120932330579e-10       4.102297135748e-16       1.145202140470e-13       0.000000000000e+00       9.835379955215e-10       7.867101578714e-11       8.889955902302e-14 
   11       1.121637902993e-10       3.448734022462e-16       1.084162231447e-13       0.000000000000e+00       8.285451786861e-10       6.949717380819e-11       5.221827051173e-14 
   12       1.125496736861e-10       3.002528083782e-16       1.097376412188e-13       0.000000000000e+00       7.238384115560e-10       6.141315090936e-11       1.272554348501e-14 
   13       1.131978799370e-10       2.876097651522e-16       1.154970208336e-13       0.000000000000e+00       6.378940650558e-10       5.486428346000e-11      -1.755112977842e-14 
   14       1.140550875484e-10       2.993362678949e-16       1.234501080685e-13       0.000000000000e+00       5.663978127748e-10       4.914334410423e-11      -3.426727959068e-14 
   15       1.151106146306e-10       3.236767634552e-16       1.321986740703e-13       0.000000000000e+00       5.062237626948e-10       4.434482723738e-11      -3.748913563701e-14 
   16       1.162919452864e-10       3.579214861692e-16       1.409847271854e-13       0.000000000000e+00       4.550681217353e-10       4.021604823024e-11      -3.107591539384e-14 
   17       1.176186702928e-10       4.075687510248e-16       1.495947644409e-13       0.000000000000e+00       4.111906375299e-10       3.661631837066e-11      -2.016416700718e-14 
   18       1.190294677933e-10       4.781094839604e-16       1.583226269571e-13       0.000000000000e+00       3.731117911717e-10       3.347341670592e-11      -9.646227057300e-15 
   19       1.205352772676e-10       5.699215740215e-16       1.674020471248e-13       0.000000000000e+00       3.402268501186e-10       3.074460144376e-11      -2.158343551526e-15 
   20       1.221249445705e-10       6.810517769150e-16       1.769892608171e-13       0.000000000000e+00       3.112665566084e-10       2.832648264765e-11       5.407048227323e-16 
   21       1.238013373546e-10       8.108694619843e-16       1.870820929111e-13       0.000000000000e+00       2.857753439050e-10       2.617438134113e-11      -1.023633586887e-15 
   22       1.255401393981e-10       9.588882893791e-16       1.975434050514e-13       0.000000000000e+00       2.631429511713e-10       2.423070390702e-11      -5.143332312773e-15 
   23       1.273442026651e-10       1.125339500623e-15       2.080231768210e-13       0.000000000000e+00       2.430578254901e-10       2.248516286345e-11      -1.008560279432e-14 
   24       1.292037672853e-10       1.310482039103e-15       2.180621017320e-13       0.000000000000e+00       2.250552009682e-10       2.092115191927e-11      -1.398884328495e-14 
   25       1.311226064533e-10       1.514347633419e-15       2.273748810659e-13       0.000000000000e+00       2.089229942762e-10       1.952276685214e-11      -1.599999948489e-14 
   26       1.330919523963e-10       1.737130434994e-15       2.357305793476e-13       0.000000000000e+00       1.943688792135e-10       1.825979412618e-11      -1.575370275229e-14 
   27       1.351044791140e-10       1.980825598462e-15       2.430073854836e-13       0.000000000000e+00       1.812179894267e-10       1.711269242800e-11      -1.384658609653e-14 
   28       1.371446635776e-10       2.247979722894e-15       2.491486914603e-13       0.000000000000e+00       1.692433223515e-10       1.605839034204e-11      -1.126889709148e-14 
   29       1.392217518410e-10       2.540078562256e-15       2.542200429345e-13       0.000000000000e+00       1.583835896284e-10       1.509527848532e-11      -8.678782707148e-15 
   30       1.413414493849e-10       2.858275296969e-15       2.583648172136e-13       0.000000000000e+00       1.485220513764e-10       1.422021655584e-11      -6.749879611987e-15 
   31       1.434987427350e-10       3.203661286151e-15       2.617314805047e-13       0.000000000000e+00       1.394573812284e-10       1.342174919931e-11      -6.107588345488e-15 
   32       1.456963814319e-10       3.577160160516e-15       2.642772177207e-13       0.000000000000e+00       1.311426625047e-10       1.269128976079e-11      -6.583624332879e-15 
   33       1.479305866885e-10       3.979580701471e-15       2.658899785367e-13       0.000000000000e+00       1.235189880310e-10       1.201444463294e-11      -7.669541836218e-15 
   34       1.501906362778e-10       4.411678914225e-15       2.664399878329e-13       0.000000000000e+00       1.164795385330e-10       1.137374352597e-11      -8.794953763197e-15 
   35       1.524791656501e-10       4.874308543646e-15       2.657887972171e-13       0.000000000000e+00       1.099882097015e-10       1.077132845290e-11      -9.668951162037e-15 
   36       1.547972225730e-10       5.368314255169e-15       2.637806946432e-13       0.000000000000e+00       1.039928512855e-10       1.021349393445e-11      -1.004930359294e-14 
   37       1.571413828125e-10       5.894494019706e-15       2.602727810068e-13       0.000000000000e+00       9.841535116012e-11       9.703702650718e-12      -9.738263913282e-15 
   38       1.595152087057e-10       6.453620355552e-15       2.552515962215e-13       0.000000000000e+00       9.324126214952e-11       9.239987548722e-12      -8.886135908602e-15 
   39       1.619204076938e-10       7.046419643456e-15       2.487556400509e-13       0.000000000000e+00       8.845413939577e-11       8.816193923589e-12      -7.791670076205e-15 
   40       1.643530108002e-10       7.673561809676e-15       2.408458927236e-13       0.000000000000e+00       8.400827885477e-11       8.422271922592e-12      -6.826887470988e-15 
   41       1.668065348544e-10       8.335678998504e-15       2.315818088100e-13       0.000000000000e+00       7.984463206333e-11       8.047311118660e-12      -6.339616701255e-15 
   42       1.692841240017e-10       9.033437605458e-15       2.209366377659e-13       0.000000000000e+00       7.595091611634e-11       7.690588405021e-12      -6.311565577821e-15 
   43       1.717893686828e-10       9.767483598363e-15       2.088568215308e-13       0.000000000000e+00       7.231677612610e-11       7.353587172482e-12      -6.596908870696e-15 
   44       1.743225697762e-10       1.053842019708e-14       1.952845989683e-13       0.000000000000e+00       6.891574827549e-11       7.036875876773e-12      -7.012628858431e-15 
   45       1.768821282574e-10       1.134679944617e-14       1.801632942564e-13       0.000000000000e+00       6.571470694866e-11       6.740232732550e-12      -7.379432481176e-15 
   46       1.794699918023e-10       1.219309887404e-14       1.634559840672e-13       0.000000000000e+00       6.270859570337e-11       6.463262737018e-12      -7.664501771075e-15 
   47       1.820872718694e-10       1.307773428586e-14       1.451317494446e-13       0.000000000000e+00       5.989389833667e-11       6.204821834202e-12      -7.877513696435e-15 
   48       1.847324367268e-10       1.400106308726e-14       1.251604225000e-13       0.000000000000e+00       5.725816384181e-11       5.962753682292e-12      -8.031318707023e-15 
   49       1.874010786658e-10       1.496338182112e-14       1.035125243850e-13       0.000000000000e+00       5.477934207648e-11       5.733817456175e-12      -8.142132930023e-15 
   50       1.900882227991e-10       1.596492389238e-14       8.015883711549e-14       0.000000000000e+00       5.243242119316e-11       5.514615352910e-12      -8.228701617866e-15 
   51       1.927965323366e-10       1.700585772853e-14       5.506912593193e-14       0.000000000000e+00       5.021300515770e-11       5.304839408007e-12      -8.309075900373e-15 
   52       1.955299281538e-10       1.808628386212e-14       2.821296292018e-14       0.000000000000e+00       4.811898774347e-11       5.104781192983e-12      -8.403293340922e-15 
   53       1.982911313719e-10       1.920623230314e-14      -4.400145279569e-16       0.000000000000e+00       4.614349701005e-11       4.914384583809e-12      -8.534470589612e-15 
   54       2.010815501753e-10       2.036566008470e-14      -3.092018297257e-14       0.000000000000e+00       4.427457458381e-11       4.733220608287e-12      -8.728947167553e-15 
   55       2.039017596844e-10       2.156448654291e-14      -6.325326381300e-14       0.000000000000e+00       4.249882163031e-11       4.560703361089e-12      -9.007489348042e-15 
   56       2.067533404634e-10       2.280271504220e-14      -9.744477609020e-14       0.000000000000e+00       4.081413215705e-11       4.396858182889e-12      -9.356013532447e-15 
   57       2.096372984897e-10       2.408033719023e-14      -1.334918602530e-13       0.000000000000e+00       3.921956117119e-11       4.241700256633e-12      -9.747841781854e-15 
   58       2.125534239991e-10       2.539729679048e-14      -1.713875846986e-13       0.000000000000e+00       3.771147257406e-11       4.094994842092e-12      -1.015180443717e-14 
   59       2.155002014096e-10       2.675348885802e-14      -2.111208400295e-13       0.000000000000e+00       3.628337298811e-11       3.956241515491e-12      -1.053203559552e-14 
   60       2.184747192453e-10       2.814875863542e-14      -2.526762333091e-13       0.000000000000e+00       3.492574558394e-11       3.824658409138e-12      -1.084776858659e-14 
   61       2.214739701956e-10       2.958283632949e-14      -2.960366442771e-13       0.000000000000e+00       3.362869136264e-11       3.699399690979e-12      -1.106273343325e-14 
   62       2.244992960704e-10       3.105512642973e-14      -3.411918036997e-13       0.000000000000e+00       3.239092173061e-11       3.580300701704e-12      -1.117627683386e-14 
   63       2.275527852618e-10       3.256486913854e-14      -3.881314616410e-13       0.000000000000e+00       3.121249871381e-11       3.467272865776e-12      -1.119889625279e-14 
   64       2.306359255915e-10       3.411119751361e-14      -4.368428745542e-13       0.000000000000e+00       3.009213004927e-11       3.360077016048e-12      -1.114335248138e-14 
   65       2.337495583429e-10       3.569313444428e-14      -4.873107839999e-13       0.000000000000e+00       2.902709209057e-11       3.258315033923e-12      -1.102476977804e-14 
   66       2.368938322924e-10       3.730958962786e-14      -5.395173953645e-13       0.000000000000e+00       2.801315271325e-11       3.161421489507e-12      -1.086073600829e-14 
   67       2.400681577417e-10       3.895935654594e-14      -5.934423565782e-13       0.000000000000e+00       2.704449422021e-11       3.068655281762e-12      -1.067140278483e-14 
   68       2.432717973808e-10       4.064122831149e-14      -6.490638367261e-13       0.000000000000e+00       2.611526626520e-11       2.979290148020e-12      -1.047564301585e-14 
   69       2.465058806559e-10       4.235437922716e-14      -7.063620632427e-13       0.000000000000e+00       2.522478234589e-11       2.893249704982e-12      -1.027839560083e-14 
   70       2.497717168619e-10       4.409805546406e-14      -7.653164665079e-13       0.000000000000e+00       2.437324259898e-11       2.810586656974e-12      -1.008092455097e-14 
   71       2.530701652762e-10       4.587146304797e-14      -8.259046500955e-13       0.000000000000e+00       2.356016217500e-11       2.731292096810e-12      -9.884534011941e-15 
   72       2.564016054777e-10       4.767376787582e-14      -8.881023976221e-13       0.000000000000e+00       2.278433583221e-11       2.655292232119e-12      -9.690567570490e-15 
   73       2.597659076659e-10       4.950409573216e-14      -9.518836795956e-13       0.000000000000e+00       2.204380253043e-11       2.582445111674e-12      -9.500407560924e-15 
   74       2.631624029800e-10       5.136153230573e-14      -1.017220660263e-12       0.000000000000e+00       2.133581002493e-11       2.512537351720e-12      -9.315474371641e-15 
   75       2.665898538180e-10       5.324512320588e-14      -1.084083704461e-12       0.000000000000e+00       2.065677946028e-11       2.445280862299e-12      -9.137225751654e-15 
   76       2.700470460137e-10       5.515381959760e-14      -1.152440829212e-12       0.000000000000e+00       2.000319330134e-11       2.380388950198e-12      -8.967072656437e-15 
   77       2.735347556472e-10       5.708630362462e-14      -1.222255927935e-12       0.000000000000e+00       1.937452432535e-11       2.317827885993e-12      -8.806110601735e-15 
   78       2.770540886334e-10       5.904113103340e-14      -1.293490233350e-12       0.000000000000e+00       1.877077890133e-11       2.257605476996e-12      -8.655337833315e-15 
   79       2.806058740274e-10       6.101678164964e-14      -1.366102839537e-12       0.000000000000e+00       1.819160483070e-11       2.199694140988e-12      -8.515732075642e-15 
   80       2.841906470946e-10       6.301165827967e-14      -1.440050697396e-12       0.000000000000e+00       1.763627487484e-11       2.144029260223e-12      -8.388248126974e-15 
   81       2.878086323819e-10       6.502408561177e-14      -1.515288610110e-12       0.000000000000e+00       1.710367028274e-11       2.090507535439e-12      -8.273815454453e-15 
   82       2.914597267882e-10       6.705230911757e-14      -1.591769228610e-12       0.000000000000e+00       1.659226431868e-11       2.038985339869e-12      -8.173335789205e-15 
   83       2.951434826353e-10       6.909449395339e-14      -1.669443047037e-12       0.000000000000e+00       1.610010578985e-11       1.989277073249e-12      -8.087680721427e-15 
   84       2.988593908624e-10       7.114879103441e-14      -1.748259109321e-12       0.000000000000e+00       1.562529297909e-11       1.941201523588e-12      -8.017273201443e-15 
   85       3.026078216344e-10       7.321355024913e-14      -1.828167273454e-12       0.000000000000e+00       1.516752179850e-11       1.894733388786e-12      -7.960757596656e-15 
   86       3.063892093530e-10       7.528714074143e-14      -1.909116316012e-12       0.000000000000e+00       1.472676527890e-11       1.849873973043e-12      -7.916103723830e-15 
   87       3.102037546867e-10       7.736788691031e-14      -1.991053261717e-12       0.000000000000e+00       1.430279787509e-11       1.806604585697e-12      -7.880994080706e-15 
   88       3.140514126857e-10       7.945406844024e-14      -2.073923390853e-12       0.000000000000e+00       1.389518723548e-11       1.764885702093e-12      -7.852814447920e-15 
   89       3.179318808970e-10       8.154392033149e-14      -2.157670246676e-12       0.000000000000e+00       1.350328597192e-11       1.724656124442e-12      -7.828644490920e-15 
   90       3.218445874791e-10       8.363563293044e-14      -2.242235642830e-12       0.000000000000e+00       1.312622342937e-11       1.685832142686e-12      -7.805248361883e-15 
   91       3.257886793170e-10       8.572735195988e-14      -2.327559670765e-12       0.000000000000e+00       1.276289745572e-11       1.648306695359e-12      -7.779065301631e-15 
   92       3.297630101369e-10       8.781717854937e-14      -2.413580707146e-12       0.000000000000e+00       1.241196617147e-11       1.611948530451e-12      -7.746200241548e-15 
   93       3.337664852144e-10       8.990319819582e-14      -2.500236188285e-12       0.000000000000e+00       1.207216618756e-11       1.576634420031e-12      -7.703317707358e-15 
   94       3.377991806187e-10       9.198357256197e-14      -2.587465050570e-12       0.000000000000e+00       1.174333988246e-11       1.542353169057e-12      -7.650497733385e-15 
   95       3.418613711117e-10       9.405646160470e-14      -2.675205672491e-12       0.000000000000e+00       1.142554812959e-11       1.509115770807e-12      -7.588794100513e-15 
   96       3.459531816570e-10       9.611999629669e-14      -2.763395158033e-12       0.000000000000e+00       1.111875391686e-11       1.476923366682e-12      -7.519372267437e-15 
   97       3.500745804297e-10       9.817227905377e-14      -2.851969354619e-12       0.000000000000e+00       1.082281859748e-11       1.445766860795e-12      -7.443512372055e-15 
   98       3.542253718263e-10       1.002113841625e-13      -2.940862871050e-12       0.000000000000e+00       1.053749814083e-11       1.415626534558e-12      -7.362612232865e-15 
   99       3.584051894740e-10       1.022353582074e-13      -3.030009095451e-12       0.000000000000e+00       1.026243938328e-11       1.386471661263e-12      -7.278190350355e-15 
  100       3.626134892410e-10       1.042422204987e-13      -3.119340213212e-12       0.000000000000e+00       9.997176279063e-12       1.358260120676e-12      -7.191888908399e-15 
  101       3.668495422461e-10       1.062299634995e-13      -3.208787224934e-12       0.000000000000e+00       9.741126151067e-12       1.330938013617e-12      -7.105476775648e-15 
  102       3.711124278682e-10       1.081965532534e-13      -3.298279964367e-12       0.000000000000e+00       9.493585941729e-12       1.304439276550e-12      -7.020852506924e-15 
  103       3.754010267563e-10       1.101399298116e-13      -3.387747116358e-12       0.000000000000e+00       9.253728463848e-12       1.278685296167e-12      -6.940047344616e-15 
  104       3.797142540297e-10       1.120580585556e-13      -3.477116822519e-12       0.000000000000e+00       9.020789833214e-12       1.253603433527e-12      -6.864788348655e-15 
  105       3.840518098119e-10       1.139490911378e-13      -3.566318552774e-12       0.000000000000e+00       8.794668677350e-12       1.229186276446e-12      -6.795114111153e-15 
  106       3.884135175229e-10       1.158112271797e-13      -3.655281521261e-12       0.000000000000e+00       8.575401258457e-12       1.205439709983e-12      -6.730576769922e-15 
  107       3.927990884442e-10       1.176426662929e-13      -3.743934145287e-12       0.000000000000e+00       8.362975891471e-12       1.182364546172e-12      -6.670663371082e-15 
